{
  "AcquisitionMatrixPE": 64,
  "AcquisitionNumber": 1,
  "AcquisitionTime": "18:45:35.460000",
  "BandwidthPerPixelPhaseEncode": 40.064,
  "BaseResolution": 64,
  "BodyPartExamined": "BRAIN",
  "ConsistencyInfo": "N4_VD13D_LATEST_20130810",
  "ConversionSoftware": "dcm2niix",
  "ConversionSoftwareVersion": "v1.0.20191031",
  "DerivedVendorReportedEchoSpacing": 0.000780002,
  "DeviceSerialNumber": "67007",
  "DwellTime": 5.3e-06,
  "EchoTime": 0.03,
  "EchoTrainLength": 31,
  "EffectiveEchoSpacing": 0.000390001,
  "FlipAngle": 75,
  "ImageOrientationPatientDICOM": [0.999918, 0.0125148, 0.00277053, -0.0122169, 0.995918, -0.0894372],
  "ImageType": [
    "ORIGINAL",
    "PRIMARY",
    "M",
    "ND",
    "NORM",
    "MOSAIC"
],
  "ImagingFrequency": 123.211,
  "InPlanePhaseEncodingDirectionDICOM": "ROW",
  "InstitutionAddress": "Perth_Drive_100_London_Ontario_CA_N6A_5K8",
  "InstitutionName": "Robarts_Research_Institute",
  "InstitutionalDepartmentName": "CFMM",
  "MRAcquisitionType": "2D",
  "MagneticFieldStrength": 3,
  "Manufacturer": "Siemens",
  "ManufacturersModelName": "Prisma_fit",
  "Modality": "MR",
  "ParallelReductionFactorInPlane": 2,
  "PartialFourier": 1,
  "PatientPosition": "HFS",
  "PercentPhaseFOV": 100,
  "PhaseEncodingDirection": "i",
  "PhaseEncodingSteps": 63,
  "PhaseResolution": 1,
  "PixelBandwidth": 1475,
  "ProcedureStepDescription": "Owen_Naci",
  "ProtocolName": "taken_LIGHT_SED",
  "PulseSequenceDetails": "%SiemensSeq%_ep2d_bold",
  "ReceiveCoilActiveElements": "HEA;HEP",
  "ReceiveCoilName": "Head_32",
  "ReconMatrixPE": 64,
  "RefLinesPE": 24,
  "RepetitionTime": 2,
  "SAR": 0.110708,
  "ScanOptions": "FS",
  "ScanningSequence": "EP",
  "SequenceName": "_epfid2d1_64",
  "SequenceVariant": "SK",
  "SeriesDescription": "taken_LIGHT_SED",
  "SeriesNumber": 7,
  "ShimSetting": [5232, -6187, -3725, 402, -34, -48, 164, 39],
  "SliceThickness": 3,
  "SliceTiming": [1.92, 1.86, 1.8, 1.74, 1.68, 1.62, 1.56, 1.5, 1.44, 1.38, 1.32, 1.26, 1.2, 1.14, 1.08, 1.02, 0.96, 0.9, 0.84, 0.78, 0.72, 0.66, 0.6, 0.54, 0.48, 0.42, 0.36, 0.3, 0.24, 0.18, 0.12, 0.06, 0],
  "SoftwareVersions": "syngo_MR_D13D",
  "SpacingBetweenSlices": 3.75,
  "StationName": "AWP67007",
  "TaskName": "audio",
  "TotalReadoutTime": 0.0245701,
  "TxRefAmp": 305.385,
  "dcmmeta_affine": [
    [-2.999753475189209, -0.036650728434324265, 0.014544394798576832, 96.53829193115234],
    [-0.03754435479640961, 2.987752676010132, -0.33523520827293396, -73.544921875],
    [0.008311583660542965, 0.2683117389678955, 3.734957456588745, -15.257863998413086],
    [0.0, 0.0, 0.0, 1.0]
],
  "dcmmeta_reorient_transform": [
    [0.0, -1.0, 0.0, 63.0],
    [1.0, 0.0, 0.0, 0.0],
    [0.0, 0.0, 1.0, 0.0],
    [0.0, 0.0, 0.0, 1.0]
],
  "dcmmeta_shape": [64, 64, 33, 155],
  "dcmmeta_slice_dim": 2,
  "dcmmeta_version": 0.6,
  "global": {
    "const": {
      "AcquisitionMatrix": [0, 64, 64, 0],
      "AngioFlag": "N",
      "BitsAllocated": 16,
      "BitsStored": 12,
      "BodyPartExamined": "BRAIN",
      "Columns": 384,
      "EchoNumbers": 1,
      "EchoTime": 30.0,
      "EchoTrainLength": 31,
      "FlipAngle": 75.0,
      "HighBit": 11,
      "ImageOrientationPatient": [0.99991784879056, 0.0125147850803, 0.00277052782863, -0.0122169090894, 0.99591752959904, -0.0894372482227],
      "ImagePositionPatient": [-568.32574940034, -598.73100236052, 43.245801801932],
      "ImageType": [
        "ORIGINAL",
        "PRIMARY",
        "M",
        "ND",
        "NORM",
        "MOSAIC"
],
      "ImagedNucleus": "1H",
      "ImagingFrequency": 123.210946,
      "InPlanePhaseEncodingDirection": "ROW",
      "MRAcquisitionType": "2D",
      "MagneticFieldStrength": 3.0,
      "Manufacturer": "SIEMENS",
      "ManufacturerModelName": "Prisma_fit",
      "Modality": "MR",
      "NumberOfAverages": 1.0,
      "NumberOfPhaseEncodingSteps": 63,
      "PercentPhaseFieldOfView": 100.0,
      "PercentSampling": 100.0,
      "PerformedProcedureStepStartTime": "174926.300000",
      "PhotometricInterpretation": "MONOCHROME2",
      "PixelBandwidth": 1475.0,
      "PixelRepresentation": 0,
      "PixelSpacing": [3.0, 3.0],
      "ProtocolName": "taken_LIGHT SED",
      "RepetitionTime": 2000.0,
      "Rows": 384,
      "SAR": 0.11070843273823,
      "SamplesPerPixel": 1,
      "ScanOptions": "FS",
      "ScanningSequence": "EP",
      "SequenceName": "*epfid2d1_64",
      "SequenceVariant": "SK",
      "SeriesDescription": "taken_LIGHT SED",
      "SeriesNumber": 7,
      "SeriesTime": "184633.747000",
      "SliceLocation": -8.2476085545625,
      "SliceThickness": 3.0,
      "SmallestImagePixelValue": 0,
      "SoftwareVersions": "syngo MR D13D",
      "SpacingBetweenSlices": 3.7500000810215,
      "SpecificCharacterSet": "ISO_IR 100",
      "StudyID": "1",
      "StudyTime": "174926.246000",
      "TimeOfLastCalibration": ["123723.000000", "123723.000000"],
      "TransmitCoilName": "Body",
      "VariableFlipAngleFlag": "N",
      "WindowCenterWidthExplanation": "Algo1",
      "dBdt": 0.0},
    "slices": {}
  },
  "time": {
    "samples": {
      "AcquisitionNumber": [1, 2, 3, 4, 5, 6, 7, 8, 9, 10, 11, 12, 13, 14, 15, 16, 17, 18, 19, 20, 21, 22, 23, 24, 25, 26, 27, 28, 29, 30, 31, 32, 33, 34, 35, 36, 37, 38, 39, 40, 41, 42, 43, 44, 45, 46, 47, 48, 49, 50, 51, 52, 53, 54, 55, 56, 57, 58, 59, 60, 61, 62, 63, 64, 65, 66, 67, 68, 69, 70, 71, 72, 73, 74, 75, 76, 77, 78, 79, 80, 81, 82, 83, 84, 85, 86, 87, 88, 89, 90, 91, 92, 93, 94, 95, 96, 97, 98, 99, 100, 101, 102, 103, 104, 105, 106, 107, 108, 109, 110, 111, 112, 113, 114, 115, 116, 117, 118, 119, 120, 121, 122, 123, 124, 125, 126, 127, 128, 129, 130, 131, 132, 133, 134, 135, 136, 137, 138, 139, 140, 141, 142, 143, 144, 145, 146, 147, 148, 149, 150, 151, 152, 153, 154, 155],
      "AcquisitionTime": ["184535.460000", "184537.460000", "184539.460000", "184541.460000", "184543.460000", "184545.460000", "184547.460000", "184549.460000", "184551.460000", "184553.460000", "184555.460000", "184557.460000", "184559.460000", "184601.460000", "184603.460000", "184605.460000", "184607.460000", "184609.460000", "184611.460000", "184613.460000", "184615.460000", "184617.460000", "184619.460000", "184621.460000", "184623.460000", "184625.460000", "184627.460000", "184629.460000", "184631.460000", "184633.460000", "184635.460000", "184637.460000", "184639.460000", "184641.460000", "184643.460000", "184645.460000", "184647.460000", "184649.460000", "184651.460000", "184653.460000", "184655.460000", "184657.460000", "184659.460000", "184701.460000", "184703.460000", "184705.460000", "184707.460000", "184709.460000", "184711.460000", "184713.460000", "184715.460000", "184717.460000", "184719.460000", "184721.460000", "184723.460000", "184725.460000", "184727.460000", "184729.460000", "184731.460000", "184733.460000", "184735.460000", "184737.460000", "184739.460000", "184741.460000", "184743.460000", "184745.460000", "184747.460000", "184749.460000", "184751.460000", "184753.460000", "184755.460000", "184757.460000", "184759.460000", "184801.460000", "184803.460000", "184805.460000", "184807.460000", "184809.460000", "184811.460000", "184813.460000", "184815.462500", "184817.462500", "184819.462500", "184821.462500", "184823.462500", "184825.462500", "184827.462500", "184829.462500", "184831.462500", "184833.462500", "184835.462500", "184837.462500", "184839.462500", "184841.462500", "184843.462500", "184845.462500", "184847.462500", "184849.462500", "184851.462500", "184853.462500", "184855.462500", "184857.462500", "184859.462500", "184901.462500", "184903.462500", "184905.462500", "184907.462500", "184909.462500", "184911.462500", "184913.462500", "184915.462500", "184917.462500", "184919.462500", "184921.462500", "184923.462500", "184925.462500", "184927.462500", "184929.462500", "184931.462500", "184933.462500", "184935.462500", "184937.462500", "184939.462500", "184941.462500", "184943.462500", "184945.462500", "184947.462500", "184949.462500", "184951.462500", "184953.462500", "184955.462500", "184957.462500", "184959.462500", "185001.462500", "185003.462500", "185005.462500", "185007.462500", "185009.462500", "185011.462500", "185013.462500", "185015.462500", "185017.462500", "185019.462500", "185021.462500", "185023.462500", "185025.462500", "185027.462500", "185029.462500", "185031.462500", "185033.462500", "185035.462500", "185037.462500", "185039.462500", "185041.462500", "185043.462500"],
      "ContentTime": ["184633.752000", "184633.756000", "184633.759000", "184633.762000", "184633.765000", "184633.767000", "184633.770000", "184633.773000", "184633.776000", "184633.779000", "184633.782000", "184633.785000", "184633.788000", "184633.790000", "184633.793000", "184633.796000", "184633.799000", "184633.802000", "184633.805000", "184633.807000", "184633.810000", "184633.813000", "184633.816000", "184633.819000", "184633.822000", "184633.825000", "184633.828000", "184633.831000", "184633.833000", "184713.745000", "184713.748000", "184713.751000", "184713.754000", "184713.757000", "184713.759000", "184713.762000", "184713.765000", "184713.772000", "184713.775000", "184713.778000", "184713.780000", "184713.783000", "184713.786000", "184713.789000", "184713.791000", "184713.794000", "184713.797000", "184713.800000", "184713.802000", "184753.746000", "184753.749000", "184753.752000", "184753.755000", "184753.758000", "184753.760000", "184753.763000", "184753.766000", "184753.769000", "184753.772000", "184753.775000", "184753.777000", "184753.780000", "184753.783000", "184753.786000", "184753.789000", "184753.792000", "184753.795000", "184753.798000", "184753.801000", "184833.745000", "184833.748000", "184833.751000", "184833.754000", "184833.757000", "184833.759000", "184833.762000", "184833.765000", "184833.768000", "184833.771000", "184833.774000", "184833.777000", "184833.780000", "184833.782000", "184833.785000", "184833.788000", "184833.791000", "184833.794000", "184833.796000", "184833.799000", "184913.746000", "184913.749000", "184913.752000", "184913.755000", "184913.757000", "184913.760000", "184913.763000", "184913.766000", "184913.769000", "184913.772000", "184913.775000", "184913.777000", "184913.780000", "184913.783000", "184913.786000", "184913.789000", "184913.792000", "184913.795000", "184913.798000", "184913.800000", "184953.746000", "184953.749000", "184953.752000", "184953.754000", "184953.757000", "184953.760000", "184953.763000", "184953.766000", "184953.769000", "184953.771000", "184953.774000", "184953.777000", "184953.780000", "184953.783000", "184953.786000", "184953.789000", "184953.792000", "184953.794000", "184953.798000", "184953.800000", "185033.744000", "185033.747000", "185033.750000", "185033.753000", "185033.755000", "185033.758000", "185033.761000", "185033.764000", "185033.767000", "185033.770000", "185033.773000", "185033.775000", "185033.778000", "185033.781000", "185033.784000", "185033.787000", "185033.790000", "185033.792000", "185033.795000", "185033.798000", "185044.120000", "185044.123000", "185044.126000", "185044.129000", "185044.133000", "185044.136000"],
      "InstanceCreationTime": ["184633.752000", "184633.756000", "184633.759000", "184633.762000", "184633.765000", "184633.767000", "184633.770000", "184633.773000", "184633.776000", "184633.779000", "184633.782000", "184633.785000", "184633.788000", "184633.790000", "184633.793000", "184633.796000", "184633.799000", "184633.802000", "184633.805000", "184633.807000", "184633.810000", "184633.813000", "184633.816000", "184633.819000", "184633.822000", "184633.825000", "184633.828000", "184633.831000", "184633.833000", "184713.745000", "184713.748000", "184713.751000", "184713.754000", "184713.757000", "184713.759000", "184713.762000", "184713.765000", "184713.772000", "184713.775000", "184713.778000", "184713.780000", "184713.783000", "184713.786000", "184713.789000", "184713.791000", "184713.794000", "184713.797000", "184713.800000", "184713.802000", "184753.746000", "184753.749000", "184753.752000", "184753.755000", "184753.758000", "184753.760000", "184753.763000", "184753.766000", "184753.769000", "184753.772000", "184753.775000", "184753.777000", "184753.780000", "184753.783000", "184753.786000", "184753.789000", "184753.792000", "184753.795000", "184753.798000", "184753.801000", "184833.745000", "184833.748000", "184833.751000", "184833.754000", "184833.757000", "184833.759000", "184833.762000", "184833.765000", "184833.768000", "184833.771000", "184833.774000", "184833.777000", "184833.780000", "184833.782000", "184833.785000", "184833.788000", "184833.791000", "184833.794000", "184833.796000", "184833.799000", "184913.746000", "184913.749000", "184913.752000", "184913.755000", "184913.757000", "184913.760000", "184913.763000", "184913.766000", "184913.769000", "184913.772000", "184913.775000", "184913.777000", "184913.780000", "184913.783000", "184913.786000", "184913.789000", "184913.792000", "184913.795000", "184913.798000", "184913.800000", "184953.746000", "184953.749000", "184953.752000", "184953.754000", "184953.757000", "184953.760000", "184953.763000", "184953.766000", "184953.769000", "184953.771000", "184953.774000", "184953.777000", "184953.780000", "184953.783000", "184953.786000", "184953.789000", "184953.792000", "184953.794000", "184953.798000", "184953.800000", "185033.744000", "185033.747000", "185033.750000", "185033.753000", "185033.755000", "185033.758000", "185033.761000", "185033.764000", "185033.767000", "185033.770000", "185033.773000", "185033.775000", "185033.778000", "185033.781000", "185033.784000", "185033.787000", "185033.790000", "185033.792000", "185033.795000", "185033.798000", "185044.120000", "185044.123000", "185044.126000", "185044.129000", "185044.133000", "185044.136000"],
      "InstanceNumber": [1, 2, 3, 4, 5, 6, 7, 8, 9, 10, 11, 12, 13, 14, 15, 16, 17, 18, 19, 20, 21, 22, 23, 24, 25, 26, 27, 28, 29, 30, 31, 32, 33, 34, 35, 36, 37, 38, 39, 40, 41, 42, 43, 44, 45, 46, 47, 48, 49, 50, 51, 52, 53, 54, 55, 56, 57, 58, 59, 60, 61, 62, 63, 64, 65, 66, 67, 68, 69, 70, 71, 72, 73, 74, 75, 76, 77, 78, 79, 80, 81, 82, 83, 84, 85, 86, 87, 88, 89, 90, 91, 92, 93, 94, 95, 96, 97, 98, 99, 100, 101, 102, 103, 104, 105, 106, 107, 108, 109, 110, 111, 112, 113, 114, 115, 116, 117, 118, 119, 120, 121, 122, 123, 124, 125, 126, 127, 128, 129, 130, 131, 132, 133, 134, 135, 136, 137, 138, 139, 140, 141, 142, 143, 144, 145, 146, 147, 148, 149, 150, 151, 152, 153, 154, 155],
      "LargestImagePixelValue": [828, 822, 828, 854, 888, 897, 815, 845, 820, 817, 825, 841, 848, 842, 848, 809, 815, 805, 851, 828, 812, 809, 810, 844, 825, 835, 826, 834, 871, 876, 823, 851, 872, 813, 838, 897, 853, 825, 820, 812, 804, 814, 873, 850, 805, 805, 811, 871, 919, 819, 811, 814, 809, 833, 828, 838, 816, 826, 899, 819, 815, 804, 804, 837, 817, 926, 854, 834, 805, 831, 881, 842, 831, 806, 805, 844, 830, 814, 797, 854, 817, 808, 798, 809, 856, 846, 815, 833, 820, 827, 800, 817, 824, 818, 879, 872, 860, 917, 847, 813, 809, 803, 858, 823, 843, 822, 826, 815, 832, 824, 812, 857, 845, 809, 850, 820, 816, 819, 840, 809, 825, 873, 823, 867, 815, 814, 831, 843, 814, 812, 815, 848, 813, 831, 814, 875, 808, 818, 812, 875, 835, 821, 811, 811, 808, 822, 824, 837, 823, 814, 823, 832, 817, 866, 832],
      "WindowCenter": [463.0, 462.0, 463.0, 463.0, 462.0, 461.0, 461.0, 461.0, 461.0, 461.0, 461.0, 462.0, 462.0, 462.0, 462.0, 461.0, 461.0, 460.0, 461.0, 461.0, 461.0, 461.0, 461.0, 461.0, 461.0, 461.0, 462.0, 462.0, 462.0, 461.0, 460.0, 461.0, 462.0, 462.0, 462.0, 463.0, 461.0, 460.0, 460.0, 461.0, 460.0, 461.0, 462.0, 461.0, 461.0, 462.0, 462.0, 462.0, 462.0, 461.0, 461.0, 461.0, 460.0, 461.0, 461.0, 461.0, 461.0, 461.0, 462.0, 460.0, 460.0, 460.0, 461.0, 463.0, 462.0, 462.0, 461.0, 461.0, 461.0, 462.0, 462.0, 462.0, 462.0, 461.0, 461.0, 462.0, 462.0, 461.0, 461.0, 462.0, 460.0, 460.0, 460.0, 461.0, 462.0, 461.0, 460.0, 461.0, 461.0, 461.0, 461.0, 462.0, 463.0, 463.0, 464.0, 464.0, 465.0, 464.0, 462.0, 461.0, 461.0, 460.0, 462.0, 461.0, 461.0, 460.0, 460.0, 461.0, 461.0, 460.0, 461.0, 461.0, 461.0, 461.0, 461.0, 461.0, 462.0, 461.0, 461.0, 461.0, 461.0, 462.0, 461.0, 461.0, 461.0, 461.0, 461.0, 461.0, 461.0, 461.0, 461.0, 461.0, 461.0, 461.0, 461.0, 462.0, 462.0, 462.0, 463.0, 463.0, 462.0, 461.0, 461.0, 462.0, 462.0, 462.0, 462.0, 462.0, 462.0, 462.0, 461.0, 461.0, 462.0, 462.0, 462.0],
      "WindowWidth": [973.0, 970.0, 971.0, 971.0, 970.0, 968.0, 967.0, 967.0, 967.0, 968.0, 968.0, 969.0, 970.0, 969.0, 969.0, 969.0, 969.0, 966.0, 968.0, 969.0, 968.0, 968.0, 967.0, 968.0, 967.0, 969.0, 971.0, 970.0, 970.0, 967.0, 966.0, 968.0, 970.0, 969.0, 970.0, 970.0, 967.0, 966.0, 967.0, 967.0, 966.0, 967.0, 969.0, 968.0, 967.0, 969.0, 970.0, 970.0, 969.0, 967.0, 968.0, 968.0, 967.0, 968.0, 967.0, 968.0, 968.0, 967.0, 969.0, 967.0, 966.0, 966.0, 968.0, 972.0, 969.0, 970.0, 967.0, 967.0, 967.0, 969.0, 970.0, 969.0, 970.0, 968.0, 968.0, 969.0, 969.0, 968.0, 968.0, 969.0, 966.0, 966.0, 967.0, 968.0, 969.0, 968.0, 967.0, 968.0, 968.0, 968.0, 968.0, 970.0, 971.0, 971.0, 974.0, 973.0, 974.0, 974.0, 969.0, 968.0, 968.0, 967.0, 969.0, 968.0, 967.0, 965.0, 966.0, 968.0, 968.0, 967.0, 967.0, 968.0, 967.0, 967.0, 968.0, 967.0, 969.0, 968.0, 968.0, 967.0, 968.0, 970.0, 968.0, 968.0, 968.0, 968.0, 967.0, 968.0, 968.0, 968.0, 968.0, 968.0, 968.0, 968.0, 968.0, 970.0, 969.0, 971.0, 971.0, 970.0, 969.0, 968.0, 969.0, 970.0, 970.0, 969.0, 969.0, 970.0, 970.0, 969.0, 968.0, 968.0, 969.0, 970.0, 969.0]
    },
    "slices": {}
  }
}