{
  "AcquisitionMatrixPE": 64,
  "AcquisitionNumber": 1,
  "AcquisitionTime": "17:48:43.765000",
  "BandwidthPerPixelPhaseEncode": 40.064,
  "BaseResolution": 64,
  "BodyPartExamined": "BRAIN",
  "ConsistencyInfo": "N4_VD13D_LATEST_20130810",
  "ConversionSoftware": "dcm2niix",
  "ConversionSoftwareVersion": "v1.0.20191031",
  "DerivedVendorReportedEchoSpacing": 0.000780002,
  "DeviceSerialNumber": "67007",
  "DwellTime": 5.3e-06,
  "EchoTime": 0.03,
  "EchoTrainLength": 31,
  "EffectiveEchoSpacing": 0.000390001,
  "FlipAngle": 75,
  "ImageOrientationPatientDICOM": [0.999976, -0.00545748, -0.00416111, 0.00523591, 0.998658, -0.0515173],
  "ImageType": [
    "ORIGINAL",
    "PRIMARY",
    "M",
    "ND",
    "NORM",
    "MOSAIC"
],
  "ImagingFrequency": 123.211,
  "InPlanePhaseEncodingDirectionDICOM": "ROW",
  "InstitutionAddress": "Perth_Drive_100_London_Ontario_CA_N6A_5K8",
  "InstitutionName": "Robarts-CFMM",
  "InstitutionalDepartmentName": "CFMM",
  "MRAcquisitionType": "2D",
  "MagneticFieldStrength": 3,
  "Manufacturer": "Siemens",
  "ManufacturersModelName": "Prisma_fit",
  "Modality": "MR",
  "ParallelReductionFactorInPlane": 2,
  "PartialFourier": 1,
  "PatientPosition": "HFS",
  "PercentPhaseFOV": 100,
  "PhaseEncodingDirection": "i",
  "PhaseEncodingSteps": 63,
  "PhaseResolution": 1,
  "PixelBandwidth": 1475,
  "ProcedureStepDescription": "Owen_Naci",
  "ProtocolName": "taken_full_sed",
  "PulseSequenceDetails": "%SiemensSeq%_ep2d_bold",
  "ReceiveCoilActiveElements": "HEA;HEP",
  "ReceiveCoilName": "Head_32",
  "ReconMatrixPE": 64,
  "RefLinesPE": 24,
  "RepetitionTime": 2,
  "SAR": 0.0814128,
  "ScanOptions": "FS",
  "ScanningSequence": "EP",
  "SequenceName": "_epfid2d1_64",
  "SequenceVariant": "SK",
  "SeriesDescription": "taken_full_sed",
  "SeriesNumber": 12,
  "ShimSetting": [5239, -6199, -3811, 375, 54, -181, 73, 34],
  "SliceThickness": 3,
  "SliceTiming": [1.92, 1.86, 1.8, 1.74, 1.68, 1.62, 1.56, 1.5, 1.44, 1.38, 1.32, 1.26, 1.2, 1.14, 1.08, 1.02, 0.96, 0.9, 0.84, 0.78, 0.72, 0.66, 0.6, 0.54, 0.48, 0.42, 0.36, 0.3, 0.24, 0.18, 0.12, 0.06, 0],
  "SoftwareVersions": "syngo_MR_D13D",
  "SpacingBetweenSlices": 3.75,
  "StationName": "AWP67007",
  "TaskName": "audio",
  "TotalReadoutTime": 0.0245701,
  "TxRefAmp": 277.962,
  "dcmmeta_affine": [
    [-2.999929428100586, 0.01570773869752884, -0.016637537628412247, 87.11847686767578],
    [0.01637244038283825, 2.9959750175476074, -0.1931036412715912, -77.91716766357422],
    [-0.012483314611017704, 0.1545519083738327, 3.744987964630127, -41.56442642211914],
    [0.0, 0.0, 0.0, 1.0]
],
  "dcmmeta_reorient_transform": [
    [0.0, -1.0, 0.0, 63.0],
    [1.0, 0.0, 0.0, 0.0],
    [0.0, 0.0, 1.0, 0.0],
    [0.0, 0.0, 0.0, 1.0]
],
  "dcmmeta_shape": [64, 64, 33, 155],
  "dcmmeta_slice_dim": 2,
  "dcmmeta_version": 0.6,
  "global": {
    "const": {
      "AcquisitionMatrix": [0, 64, 64, 0],
      "AngioFlag": "N",
      "BitsAllocated": 16,
      "BitsStored": 12,
      "BodyPartExamined": "BRAIN",
      "Columns": 384,
      "EchoNumbers": 1,
      "EchoTime": 30.0,
      "EchoTrainLength": 31,
      "FlipAngle": 75.0,
      "HighBit": 11,
      "ImageOrientationPatient": [0.99997645028052, -0.0054574802988, -0.0041611048006, 0.00523591282566, 0.99865837642263, -0.0515173021207],
      "ImagePositionPatient": [-570.61000051622, -587.56569553745, -5.1020205112361],
      "ImageType": [
        "ORIGINAL",
        "PRIMARY",
        "M",
        "ND",
        "NORM",
        "MOSAIC"
],
      "ImagedNucleus": "1H",
      "ImagingFrequency": 123.211245,
      "InPlanePhaseEncodingDirection": "ROW",
      "MRAcquisitionType": "2D",
      "MagneticFieldStrength": 3.0,
      "Manufacturer": "SIEMENS",
      "ManufacturerModelName": "Prisma_fit",
      "Modality": "MR",
      "NumberOfAverages": 1.0,
      "NumberOfPhaseEncodingSteps": 63,
      "PercentPhaseFieldOfView": 100.0,
      "PercentSampling": 100.0,
      "PerformedProcedureStepStartTime": "154836.213000",
      "PhotometricInterpretation": "MONOCHROME2",
      "PixelBandwidth": 1475.0,
      "PixelRepresentation": 0,
      "PixelSpacing": [3.0, 3.0],
      "ProtocolName": "taken_full sed",
      "RepetitionTime": 2000.0,
      "Rows": 384,
      "SAR": 0.08141278047948,
      "SamplesPerPixel": 1,
      "ScanOptions": "FS",
      "ScanningSequence": "EP",
      "SequenceName": "*epfid2d1_64",
      "SequenceVariant": "SK",
      "SeriesDescription": "taken_full sed",
      "SeriesNumber": 12,
      "SeriesTime": "174928.033000",
      "SliceLocation": -37.883098692512,
      "SliceThickness": 3.0,
      "SmallestImagePixelValue": 0,
      "SoftwareVersions": "syngo MR D13D",
      "SpacingBetweenSlices": 3.7500000906697,
      "SpecificCharacterSet": "ISO_IR 100",
      "StudyID": "1",
      "StudyTime": "154836.109000",
      "TimeOfLastCalibration": ["123723.000000", "123723.000000"],
      "TransmitCoilName": "Body",
      "VariableFlipAngleFlag": "N",
      "WindowCenterWidthExplanation": "Algo1",
      "dBdt": 0.0},
    "slices": {}
  },
  "time": {
    "samples": {
      "AcquisitionNumber": [1, 2, 3, 4, 5, 6, 7, 8, 9, 10, 11, 12, 13, 14, 15, 16, 17, 18, 19, 20, 21, 22, 23, 24, 25, 26, 27, 28, 29, 30, 31, 32, 33, 34, 35, 36, 37, 38, 39, 40, 41, 42, 43, 44, 45, 46, 47, 48, 49, 50, 51, 52, 53, 54, 55, 56, 57, 58, 59, 60, 61, 62, 63, 64, 65, 66, 67, 68, 69, 70, 71, 72, 73, 74, 75, 76, 77, 78, 79, 80, 81, 82, 83, 84, 85, 86, 87, 88, 89, 90, 91, 92, 93, 94, 95, 96, 97, 98, 99, 100, 101, 102, 103, 104, 105, 106, 107, 108, 109, 110, 111, 112, 113, 114, 115, 116, 117, 118, 119, 120, 121, 122, 123, 124, 125, 126, 127, 128, 129, 130, 131, 132, 133, 134, 135, 136, 137, 138, 139, 140, 141, 142, 143, 144, 145, 146, 147, 148, 149, 150, 151, 152, 153, 154, 155],
      "AcquisitionTime": ["174843.765000", "174845.765000", "174847.765000", "174849.765000", "174851.765000", "174853.765000", "174855.765000", "174857.765000", "174859.765000", "174901.765000", "174903.765000", "174905.765000", "174907.765000", "174909.765000", "174911.765000", "174913.765000", "174915.765000", "174917.765000", "174919.765000", "174921.765000", "174923.765000", "174925.765000", "174927.765000", "174929.765000", "174931.765000", "174933.765000", "174935.765000", "174937.765000", "174939.765000", "174941.765000", "174943.765000", "174945.765000", "174947.765000", "174949.765000", "174951.765000", "174953.765000", "174955.765000", "174957.765000", "174959.765000", "175001.765000", "175003.765000", "175005.765000", "175007.765000", "175009.765000", "175011.765000", "175013.767500", "175015.767500", "175017.767500", "175019.767500", "175021.767500", "175023.767500", "175025.767500", "175027.767500", "175029.767500", "175031.767500", "175033.767500", "175035.767500", "175037.767500", "175039.767500", "175041.767500", "175043.767500", "175045.767500", "175047.767500", "175049.767500", "175051.767500", "175053.767500", "175055.767500", "175057.767500", "175059.767500", "175101.767500", "175103.767500", "175105.767500", "175107.767500", "175109.767500", "175111.767500", "175113.767500", "175115.767500", "175117.767500", "175119.767500", "175121.767500", "175123.767500", "175125.767500", "175127.767500", "175129.767500", "175131.767500", "175133.767500", "175135.767500", "175137.767500", "175139.767500", "175141.767500", "175143.767500", "175145.767500", "175147.767500", "175149.767500", "175151.767500", "175153.767500", "175155.767500", "175157.767500", "175159.767500", "175201.767500", "175203.767500", "175205.767500", "175207.767500", "175209.767500", "175211.767500", "175213.767500", "175215.767500", "175217.767500", "175219.767500", "175221.767500", "175223.767500", "175225.767500", "175227.767500", "175229.767500", "175231.767500", "175233.767500", "175235.767500", "175237.767500", "175239.767500", "175241.767500", "175243.767500", "175245.767500", "175247.767500", "175249.767500", "175251.767500", "175253.767500", "175255.767500", "175257.767500", "175259.767500", "175301.767500", "175303.767500", "175305.767500", "175307.767500", "175309.767500", "175311.767500", "175313.767500", "175315.767500", "175317.767500", "175319.767500", "175321.767500", "175323.767500", "175325.767500", "175327.767500", "175329.767500", "175331.767500", "175333.767500", "175335.767500", "175337.767500", "175339.767500", "175341.767500", "175343.767500", "175345.767500", "175347.767500", "175349.767500", "175351.767500"],
      "ContentTime": ["174928.037000", "174928.046000", "174928.049000", "174928.051000", "174928.054000", "174928.057000", "174928.059000", "174928.062000", "174928.065000", "174928.071000", "174928.074000", "174928.076000", "174928.079000", "174928.082000", "174928.084000", "174928.087000", "174928.089000", "174928.092000", "174928.095000", "174928.097000", "174928.100000", "175008.031000", "175008.034000", "175008.037000", "175008.040000", "175008.043000", "175008.046000", "175008.048000", "175008.051000", "175008.053000", "175008.056000", "175008.063000", "175008.066000", "175008.068000", "175008.071000", "175008.074000", "175008.077000", "175008.080000", "175008.082000", "175008.085000", "175008.088000", "175048.031000", "175048.035000", "175048.037000", "175048.040000", "175048.043000", "175048.045000", "175048.048000", "175048.051000", "175048.053000", "175048.056000", "175048.058000", "175048.061000", "175048.064000", "175048.067000", "175048.069000", "175048.072000", "175048.075000", "175048.077000", "175048.080000", "175048.083000", "175128.030000", "175128.038000", "175128.041000", "175128.043000", "175128.046000", "175128.050000", "175128.052000", "175128.055000", "175128.058000", "175128.062000", "175128.064000", "175128.067000", "175128.070000", "175128.073000", "175128.076000", "175128.078000", "175128.081000", "175128.084000", "175128.087000", "175128.090000", "175208.031000", "175208.035000", "175208.037000", "175208.040000", "175208.043000", "175208.045000", "175208.048000", "175208.051000", "175208.053000", "175208.056000", "175208.059000", "175208.061000", "175208.064000", "175208.066000", "175208.069000", "175208.072000", "175208.075000", "175208.078000", "175208.080000", "175208.083000", "175248.031000", "175248.034000", "175248.037000", "175248.040000", "175248.042000", "175248.045000", "175248.048000", "175248.050000", "175248.053000", "175248.056000", "175248.058000", "175248.061000", "175248.064000", "175248.067000", "175248.070000", "175248.073000", "175248.075000", "175248.078000", "175248.081000", "175248.083000", "175328.030000", "175328.034000", "175328.036000", "175328.039000", "175328.042000", "175328.045000", "175328.047000", "175328.050000", "175328.053000", "175328.056000", "175328.058000", "175328.061000", "175328.063000", "175328.066000", "175328.069000", "175328.072000", "175328.074000", "175328.077000", "175328.080000", "175328.082000", "175355.327000", "175355.330000", "175355.333000", "175355.336000", "175355.339000", "175355.342000", "175355.345000", "175355.348000", "175355.351000", "175355.355000", "175355.358000", "175355.361000", "175355.364000", "175355.367000"],
      "InstanceCreationTime": ["174928.037000", "174928.046000", "174928.049000", "174928.051000", "174928.054000", "174928.057000", "174928.059000", "174928.062000", "174928.065000", "174928.071000", "174928.074000", "174928.076000", "174928.079000", "174928.082000", "174928.084000", "174928.087000", "174928.089000", "174928.092000", "174928.095000", "174928.097000", "174928.100000", "175008.031000", "175008.034000", "175008.037000", "175008.040000", "175008.043000", "175008.046000", "175008.048000", "175008.051000", "175008.053000", "175008.056000", "175008.063000", "175008.066000", "175008.068000", "175008.071000", "175008.074000", "175008.077000", "175008.080000", "175008.082000", "175008.085000", "175008.088000", "175048.031000", "175048.035000", "175048.037000", "175048.040000", "175048.043000", "175048.045000", "175048.048000", "175048.051000", "175048.053000", "175048.056000", "175048.058000", "175048.061000", "175048.064000", "175048.067000", "175048.069000", "175048.072000", "175048.075000", "175048.077000", "175048.080000", "175048.083000", "175128.030000", "175128.038000", "175128.041000", "175128.043000", "175128.046000", "175128.050000", "175128.052000", "175128.055000", "175128.058000", "175128.062000", "175128.064000", "175128.067000", "175128.070000", "175128.073000", "175128.076000", "175128.078000", "175128.081000", "175128.084000", "175128.087000", "175128.090000", "175208.031000", "175208.035000", "175208.037000", "175208.040000", "175208.043000", "175208.045000", "175208.048000", "175208.051000", "175208.053000", "175208.056000", "175208.059000", "175208.061000", "175208.064000", "175208.066000", "175208.069000", "175208.072000", "175208.075000", "175208.078000", "175208.080000", "175208.083000", "175248.031000", "175248.034000", "175248.037000", "175248.040000", "175248.042000", "175248.045000", "175248.048000", "175248.050000", "175248.053000", "175248.056000", "175248.058000", "175248.061000", "175248.064000", "175248.067000", "175248.070000", "175248.073000", "175248.075000", "175248.078000", "175248.081000", "175248.083000", "175328.030000", "175328.034000", "175328.036000", "175328.039000", "175328.042000", "175328.045000", "175328.047000", "175328.050000", "175328.053000", "175328.056000", "175328.058000", "175328.061000", "175328.063000", "175328.066000", "175328.069000", "175328.072000", "175328.074000", "175328.077000", "175328.080000", "175328.082000", "175355.327000", "175355.330000", "175355.333000", "175355.336000", "175355.339000", "175355.342000", "175355.345000", "175355.348000", "175355.351000", "175355.355000", "175355.358000", "175355.361000", "175355.364000", "175355.367000"],
      "InstanceNumber": [1, 2, 3, 4, 5, 6, 7, 8, 9, 10, 11, 12, 13, 14, 15, 16, 17, 18, 19, 20, 21, 22, 23, 24, 25, 26, 27, 28, 29, 30, 31, 32, 33, 34, 35, 36, 37, 38, 39, 40, 41, 42, 43, 44, 45, 46, 47, 48, 49, 50, 51, 52, 53, 54, 55, 56, 57, 58, 59, 60, 61, 62, 63, 64, 65, 66, 67, 68, 69, 70, 71, 72, 73, 74, 75, 76, 77, 78, 79, 80, 81, 82, 83, 84, 85, 86, 87, 88, 89, 90, 91, 92, 93, 94, 95, 96, 97, 98, 99, 100, 101, 102, 103, 104, 105, 106, 107, 108, 109, 110, 111, 112, 113, 114, 115, 116, 117, 118, 119, 120, 121, 122, 123, 124, 125, 126, 127, 128, 129, 130, 131, 132, 133, 134, 135, 136, 137, 138, 139, 140, 141, 142, 143, 144, 145, 146, 147, 148, 149, 150, 151, 152, 153, 154, 155],
      "LargestImagePixelValue": [1045, 1098, 1372, 1004, 1347, 960, 980, 1277, 974, 1148, 1305, 977, 1009, 1271, 1052, 964, 1396, 1026, 1011, 1249, 1146, 991, 1018, 1316, 1107, 1015, 1089, 1368, 995, 1007, 1371, 997, 1078, 1165, 1295, 969, 1053, 1333, 1119, 991, 1220, 1287, 1014, 950, 1355, 995, 1035, 1382, 1090, 1064, 938, 1325, 973, 1048, 1314, 1052, 1010, 1296, 1143, 1002, 990, 1378, 993, 1017, 1333, 1060, 972, 1103, 1272, 1069, 995, 1352, 1028, 1016, 1328, 1048, 1025, 1296, 1081, 1047, 1237, 1162, 1003, 1098, 1265, 1051, 998, 1315, 1126, 1097, 1260, 1126, 968, 1261, 1137, 1062, 1022, 1352, 1007, 981, 1313, 1074, 992, 1263, 1102, 992, 1127, 1261, 1009, 1036, 1365, 1093, 1082, 1128, 1259, 1032, 1401, 1056, 1058, 1093, 1283, 980, 1177, 1184, 973, 967, 1337, 1012, 1036, 1280, 1174, 1010, 1129, 1243, 1025, 1229, 1194, 1033, 991, 1348, 1006, 1054, 1385, 1030, 979, 1156, 1200, 992, 958, 1337, 1084, 1029, 1391, 1040, 1045],
      "WindowCenter": [520.0, 520.0, 522.0, 518.0, 521.0, 518.0, 518.0, 521.0, 518.0, 519.0, 521.0, 518.0, 519.0, 522.0, 520.0, 519.0, 523.0, 519.0, 519.0, 521.0, 520.0, 519.0, 520.0, 523.0, 521.0, 521.0, 521.0, 523.0, 520.0, 519.0, 522.0, 519.0, 519.0, 520.0, 522.0, 519.0, 520.0, 522.0, 521.0, 520.0, 521.0, 522.0, 519.0, 518.0, 522.0, 519.0, 520.0, 522.0, 520.0, 519.0, 518.0, 523.0, 520.0, 521.0, 523.0, 521.0, 520.0, 522.0, 521.0, 520.0, 519.0, 523.0, 519.0, 519.0, 522.0, 519.0, 519.0, 520.0, 522.0, 521.0, 520.0, 523.0, 520.0, 520.0, 522.0, 520.0, 519.0, 522.0, 520.0, 520.0, 521.0, 521.0, 519.0, 521.0, 522.0, 521.0, 520.0, 523.0, 521.0, 521.0, 522.0, 521.0, 519.0, 522.0, 520.0, 519.0, 519.0, 523.0, 519.0, 520.0, 522.0, 520.0, 520.0, 522.0, 521.0, 520.0, 521.0, 523.0, 521.0, 521.0, 522.0, 521.0, 520.0, 521.0, 522.0, 520.0, 523.0, 520.0, 520.0, 520.0, 522.0, 520.0, 522.0, 521.0, 520.0, 520.0, 524.0, 521.0, 521.0, 524.0, 523.0, 521.0, 523.0, 523.0, 522.0, 523.0, 523.0, 522.0, 520.0, 524.0, 521.0, 521.0, 525.0, 521.0, 521.0, 523.0, 524.0, 523.0, 522.0, 526.0, 523.0, 522.0, 525.0, 522.0, 521.0],
      "WindowWidth": [1080.0, 1080.0, 1083.0, 1076.0, 1081.0, 1076.0, 1076.0, 1080.0, 1076.0, 1077.0, 1080.0, 1077.0, 1079.0, 1082.0, 1080.0, 1078.0, 1085.0, 1079.0, 1078.0, 1081.0, 1080.0, 1078.0, 1079.0, 1083.0, 1081.0, 1081.0, 1082.0, 1084.0, 1079.0, 1077.0, 1083.0, 1077.0, 1078.0, 1080.0, 1082.0, 1078.0, 1079.0, 1082.0, 1081.0, 1079.0, 1081.0, 1082.0, 1078.0, 1077.0, 1083.0, 1078.0, 1079.0, 1083.0, 1079.0, 1078.0, 1077.0, 1083.0, 1079.0, 1081.0, 1085.0, 1081.0, 1080.0, 1083.0, 1081.0, 1079.0, 1079.0, 1084.0, 1079.0, 1078.0, 1083.0, 1079.0, 1077.0, 1080.0, 1082.0, 1081.0, 1080.0, 1084.0, 1079.0, 1080.0, 1083.0, 1080.0, 1078.0, 1082.0, 1079.0, 1080.0, 1082.0, 1081.0, 1078.0, 1081.0, 1082.0, 1081.0, 1080.0, 1085.0, 1082.0, 1081.0, 1083.0, 1081.0, 1078.0, 1082.0, 1080.0, 1079.0, 1078.0, 1084.0, 1078.0, 1079.0, 1083.0, 1081.0, 1081.0, 1084.0, 1082.0, 1081.0, 1082.0, 1084.0, 1081.0, 1081.0, 1083.0, 1082.0, 1079.0, 1081.0, 1083.0, 1080.0, 1084.0, 1079.0, 1080.0, 1080.0, 1083.0, 1079.0, 1082.0, 1082.0, 1080.0, 1081.0, 1087.0, 1082.0, 1083.0, 1086.0, 1086.0, 1082.0, 1084.0, 1085.0, 1083.0, 1084.0, 1085.0, 1082.0, 1081.0, 1086.0, 1082.0, 1082.0, 1087.0, 1082.0, 1081.0, 1085.0, 1086.0, 1085.0, 1083.0, 1090.0, 1086.0, 1084.0, 1088.0, 1083.0, 1081.0]
    },
    "slices": {}
  }
}