{
  "AcquisitionMatrixPE": 64,
  "AcquisitionNumber": 1,
  "AcquisitionTime": "18:54:51.337500",
  "BandwidthPerPixelPhaseEncode": 40.064,
  "BaseResolution": 64,
  "BodyPartExamined": "BRAIN",
  "ConsistencyInfo": "N4_VD13D_LATEST_20130810",
  "ConversionSoftware": "dcm2niix",
  "ConversionSoftwareVersion": "v1.0.20191031",
  "DerivedVendorReportedEchoSpacing": 0.000780002,
  "DeviceSerialNumber": "67007",
  "DwellTime": 5.3e-06,
  "EchoTime": 0.03,
  "EchoTrainLength": 31,
  "EffectiveEchoSpacing": 0.000390001,
  "FlipAngle": 75,
  "ImageOrientationPatientDICOM": [0.999945, -0.00811917, 0.00659954, 0.00872639, 0.995159, -0.0978935],
  "ImageType": [
    "ORIGINAL",
    "PRIMARY",
    "M",
    "ND",
    "NORM",
    "MOSAIC"
],
  "ImagingFrequency": 123.211,
  "InPlanePhaseEncodingDirectionDICOM": "ROW",
  "InstitutionAddress": "Perth_Drive_100_London_Ontario_CA_N6A_5K8",
  "InstitutionName": "Robarts_Research_Institute",
  "InstitutionalDepartmentName": "CFMM",
  "MRAcquisitionType": "2D",
  "MagneticFieldStrength": 3,
  "Manufacturer": "Siemens",
  "ManufacturersModelName": "Prisma_fit",
  "Modality": "MR",
  "ParallelReductionFactorInPlane": 2,
  "PartialFourier": 1,
  "PatientPosition": "HFS",
  "PercentPhaseFOV": 100,
  "PhaseEncodingDirection": "i",
  "PhaseEncodingSteps": 63,
  "PhaseResolution": 1,
  "PixelBandwidth": 1475,
  "ProcedureStepDescription": "Owen_Naci",
  "ProtocolName": "Resting_State_light_sed",
  "PulseSequenceDetails": "%SiemensSeq%_ep2d_bold",
  "ReceiveCoilActiveElements": "HEA;HEP",
  "ReceiveCoilName": "Head_32",
  "ReconMatrixPE": 64,
  "RefLinesPE": 24,
  "RepetitionTime": 2,
  "SAR": 0.0989456,
  "ScanOptions": "FS",
  "ScanningSequence": "EP",
  "SequenceName": "_epfid2d1_64",
  "SequenceVariant": "SK",
  "SeriesDescription": "Resting_State_light_sed",
  "SeriesNumber": 7,
  "ShimSetting": [5228, -6231, -3842, 426, 26, -407, 171, 65],
  "SliceThickness": 3,
  "SliceTiming": [1.92, 1.86, 1.8, 1.74, 1.68, 1.62, 1.56, 1.5, 1.44, 1.38, 1.32, 1.26, 1.2, 1.14, 1.08, 1.02, 0.96, 0.9, 0.84, 0.78, 0.72, 0.66, 0.6, 0.54, 0.48, 0.42, 0.36, 0.3, 0.24, 0.18, 0.12, 0.06, 0],
  "SoftwareVersions": "syngo_MR_D13D",
  "SpacingBetweenSlices": 3.75,
  "StationName": "AWP67007",
  "TaskName": "rest",
  "TotalReadoutTime": 0.0245701,
  "TxRefAmp": 265.526,
  "dcmmeta_affine": [
    [-2.999835729598999, 0.026179170235991478, 0.021647922694683075, 93.91796112060547],
    [0.02435750514268875, 2.985476016998291, -0.367296427488327, -70.7354736328125],
    [0.019798630848526955, 0.29368045926094055, 3.7319061756134033, -62.25905990600586],
    [0.0, 0.0, 0.0, 1.0]
],
  "dcmmeta_reorient_transform": [
    [0.0, -1.0, 0.0, 63.0],
    [1.0, 0.0, 0.0, 0.0],
    [0.0, 0.0, 1.0, 0.0],
    [0.0, 0.0, 0.0, 1.0]
],
  "dcmmeta_shape": [64, 64, 33, 143],
  "dcmmeta_slice_dim": 2,
  "dcmmeta_version": 0.6,
  "global": {
    "const": {
      "AcquisitionMatrix": [0, 64, 64, 0],
      "AngioFlag": "N",
      "BitsAllocated": 16,
      "BitsStored": 12,
      "BodyPartExamined": "BRAIN",
      "Columns": 384,
      "EchoNumbers": 1,
      "EchoTime": 30.0,
      "EchoTrainLength": 31,
      "FlipAngle": 75.0,
      "HighBit": 11,
      "ImageOrientationPatient": [0.99994526106669, -0.0081191681652, 0.00659954381598, 0.00872639037563, 0.99515863808735, -0.0978934888087],
      "ImagePositionPatient": [-579.72964462822, -591.1284579723, 0.06390423475376],
      "ImageType": [
        "ORIGINAL",
        "PRIMARY",
        "M",
        "ND",
        "NORM",
        "MOSAIC"
],
      "ImagedNucleus": "1H",
      "ImagingFrequency": 123.211253,
      "InPlanePhaseEncodingDirection": "ROW",
      "MRAcquisitionType": "2D",
      "MagneticFieldStrength": 3.0,
      "Manufacturer": "SIEMENS",
      "ManufacturerModelName": "Prisma_fit",
      "Modality": "MR",
      "NumberOfAverages": 1.0,
      "NumberOfPhaseEncodingSteps": 63,
      "PercentPhaseFieldOfView": 100.0,
      "PercentSampling": 100.0,
      "PerformedProcedureStepStartTime": "180503.802000",
      "PhotometricInterpretation": "MONOCHROME2",
      "PixelBandwidth": 1475.0,
      "PixelRepresentation": 0,
      "PixelSpacing": [3.0, 3.0],
      "ProtocolName": "Resting State_light sed",
      "RepetitionTime": 2000.0,
      "Rows": 384,
      "SAR": 0.09894555853665,
      "SamplesPerPixel": 1,
      "ScanOptions": "FS",
      "ScanningSequence": "EP",
      "SequenceName": "*epfid2d1_64",
      "SequenceVariant": "SK",
      "SeriesDescription": "Resting State_light sed",
      "SeriesNumber": 7,
      "SeriesTime": "185529.853000",
      "SliceLocation": -54.488255464454,
      "SliceThickness": 3.0,
      "SmallestImagePixelValue": 0,
      "SoftwareVersions": "syngo MR D13D",
      "SpacingBetweenSlices": 3.7499998698128,
      "SpecificCharacterSet": "ISO_IR 100",
      "StudyID": "1",
      "StudyTime": "180503.692000",
      "TimeOfLastCalibration": ["123723.000000", "123723.000000"],
      "TransmitCoilName": "Body",
      "VariableFlipAngleFlag": "N",
      "WindowCenterWidthExplanation": "Algo1",
      "dBdt": 0.0},
    "slices": {}
  },
  "time": {
    "samples": {
      "AcquisitionNumber": [1, 3, 4, 7, 9, 10, 12, 13, 16, 17, 21, 23, 24, 26, 27, 29, 31, 32, 34, 35, 37, 38, 39, 40, 42, 43, 45, 46, 47, 49, 50, 51, 52, 55, 57, 59, 60, 61, 62, 63, 64, 65, 66, 67, 68, 69, 73, 74, 77, 78, 84, 86, 87, 92, 93, 94, 95, 97, 98, 102, 105, 106, 108, 110, 111, 114, 115, 124, 127, 128, 130, 131, 132, 134, 135, 138, 139, 140, 141, 143, 144, 145, 146, 147, 148, 150, 152, 153, 154, 156, 161, 163, 168, 170, 173, 174, 176, 177, 178, 179, 184, 185, 188, 189, 192, 193, 194, 197, 199, 200, 201, 202, 204, 206, 207, 208, 212, 213, 215, 219, 220, 223, 225, 227, 228, 230, 233, 234, 235, 236, 237, 239, 243, 244, 245, 246, 247, 249, 250, 253, 254, 255, 256],
      "AcquisitionTime": ["185451.337500", "185455.337500", "185457.337500", "185503.337500", "185507.337500", "185509.337500", "185513.337500", "185515.337500", "185521.337500", "185523.337500", "185531.337500", "185535.337500", "185537.337500", "185541.337500", "185543.337500", "185547.337500", "185551.337500", "185553.337500", "185557.337500", "185559.337500", "185603.337500", "185605.337500", "185607.337500", "185609.337500", "185613.337500", "185615.337500", "185619.337500", "185621.337500", "185623.337500", "185627.337500", "185629.337500", "185631.337500", "185633.337500", "185639.337500", "185643.337500", "185647.337500", "185649.337500", "185651.337500", "185653.337500", "185655.337500", "185657.337500", "185659.337500", "185701.337500", "185703.337500", "185705.337500", "185707.337500", "185715.337500", "185717.337500", "185723.337500", "185725.337500", "185737.337500", "185741.337500", "185743.337500", "185753.337500", "185755.337500", "185757.337500", "185759.337500", "185803.337500", "185805.337500", "185813.337500", "185819.337500", "185821.337500", "185825.340000", "185829.340000", "185831.340000", "185837.340000", "185839.340000", "185857.340000", "185903.340000", "185905.340000", "185909.340000", "185911.340000", "185913.340000", "185917.340000", "185919.340000", "185925.340000", "185927.340000", "185929.340000", "185931.340000", "185935.340000", "185937.340000", "185939.340000", "185941.340000", "185943.340000", "185945.340000", "185949.340000", "185953.340000", "185955.340000", "185957.340000", "190001.340000", "190011.340000", "190015.340000", "190025.340000", "190029.340000", "190035.340000", "190037.340000", "190041.340000", "190043.340000", "190045.340000", "190047.340000", "190057.340000", "190059.340000", "190105.340000", "190107.340000", "190113.340000", "190115.340000", "190117.340000", "190123.340000", "190127.340000", "190129.340000", "190131.340000", "190133.340000", "190137.340000", "190141.340000", "190143.340000", "190145.340000", "190153.340000", "190155.340000", "190159.340000", "190207.340000", "190209.340000", "190215.340000", "190219.340000", "190223.340000", "190225.340000", "190229.340000", "190235.340000", "190237.340000", "190239.340000", "190241.340000", "190243.340000", "190247.340000", "190255.340000", "190257.340000", "190259.340000", "190301.340000", "190303.340000", "190307.340000", "190309.340000", "190315.340000", "190317.340000", "190319.340000", "190321.340000"],
      "ContentTime": ["185529.857000", "185529.864000", "185529.867000", "185529.875000", "185529.880000", "185529.883000", "185529.888000", "185529.891000", "185529.904000", "185529.906000", "185609.852000", "185609.858000", "185609.860000", "185609.866000", "185609.868000", "185609.874000", "185609.879000", "185609.882000", "185609.887000", "185609.889000", "185609.895000", "185609.898000", "185609.900000", "185609.909000", "185649.856000", "185649.858000", "185649.864000", "185649.867000", "185649.870000", "185649.875000", "185649.878000", "185649.880000", "185649.883000", "185649.891000", "185649.896000", "185649.901000", "185649.904000", "185729.851000", "185729.854000", "185729.857000", "185729.860000", "185729.863000", "185729.866000", "185729.869000", "185729.871000", "185729.874000", "185729.885000", "185729.887000", "185729.895000", "185729.898000", "185809.861000", "185809.867000", "185809.869000", "185809.883000", "185809.886000", "185809.888000", "185809.891000", "185809.897000", "185809.900000", "185849.856000", "185849.865000", "185849.867000", "185849.873000", "185849.878000", "185849.881000", "185849.889000", "185849.892000", "185929.861000", "185929.869000", "185929.872000", "185929.878000", "185929.880000", "185929.883000", "185929.889000", "185929.891000", "185929.899000", "185929.902000", "185929.905000", "190009.851000", "190009.857000", "190009.860000", "190009.863000", "190009.865000", "190009.868000", "190009.871000", "190009.876000", "190009.881000", "190009.884000", "190009.887000", "190009.892000", "190049.852000", "190049.858000", "190049.872000", "190049.877000", "190049.885000", "190049.888000", "190049.893000", "190049.896000", "190049.899000", "190049.902000", "190129.861000", "190129.864000", "190129.872000", "190129.878000", "190129.886000", "190129.888000", "190129.891000", "190129.899000", "190129.905000", "190129.907000", "190209.851000", "190209.855000", "190209.860000", "190209.865000", "190209.868000", "190209.871000", "190209.881000", "190209.884000", "190209.889000", "190209.900000", "190209.903000", "190249.857000", "190249.863000", "190249.868000", "190249.871000", "190249.876000", "190249.884000", "190249.887000", "190249.889000", "190249.892000", "190249.895000", "190249.900000", "190321.741000", "190321.743000", "190321.746000", "190321.749000", "190321.752000", "190321.761000", "190321.765000", "190321.774000", "190321.777000", "190321.780000", "190321.783000"],
      "InstanceCreationTime": ["185529.857000", "185529.864000", "185529.867000", "185529.875000", "185529.880000", "185529.883000", "185529.888000", "185529.891000", "185529.904000", "185529.906000", "185609.852000", "185609.858000", "185609.860000", "185609.866000", "185609.868000", "185609.874000", "185609.879000", "185609.882000", "185609.887000", "185609.889000", "185609.895000", "185609.898000", "185609.900000", "185609.909000", "185649.856000", "185649.858000", "185649.864000", "185649.867000", "185649.870000", "185649.875000", "185649.878000", "185649.880000", "185649.883000", "185649.891000", "185649.896000", "185649.901000", "185649.904000", "185729.851000", "185729.854000", "185729.857000", "185729.860000", "185729.863000", "185729.866000", "185729.869000", "185729.871000", "185729.874000", "185729.885000", "185729.887000", "185729.895000", "185729.898000", "185809.861000", "185809.867000", "185809.869000", "185809.883000", "185809.886000", "185809.888000", "185809.891000", "185809.897000", "185809.900000", "185849.856000", "185849.865000", "185849.867000", "185849.873000", "185849.878000", "185849.881000", "185849.889000", "185849.892000", "185929.861000", "185929.869000", "185929.872000", "185929.878000", "185929.880000", "185929.883000", "185929.889000", "185929.891000", "185929.899000", "185929.902000", "185929.905000", "190009.851000", "190009.857000", "190009.860000", "190009.863000", "190009.865000", "190009.868000", "190009.871000", "190009.876000", "190009.881000", "190009.884000", "190009.887000", "190009.892000", "190049.852000", "190049.858000", "190049.872000", "190049.877000", "190049.885000", "190049.888000", "190049.893000", "190049.896000", "190049.899000", "190049.902000", "190129.861000", "190129.864000", "190129.872000", "190129.878000", "190129.886000", "190129.888000", "190129.891000", "190129.899000", "190129.905000", "190129.907000", "190209.851000", "190209.855000", "190209.860000", "190209.865000", "190209.868000", "190209.871000", "190209.881000", "190209.884000", "190209.889000", "190209.900000", "190209.903000", "190249.857000", "190249.863000", "190249.868000", "190249.871000", "190249.876000", "190249.884000", "190249.887000", "190249.889000", "190249.892000", "190249.895000", "190249.900000", "190321.741000", "190321.743000", "190321.746000", "190321.749000", "190321.752000", "190321.761000", "190321.765000", "190321.774000", "190321.777000", "190321.780000", "190321.783000"],
      "InstanceNumber": [1, 3, 4, 7, 9, 10, 12, 13, 16, 17, 21, 23, 24, 26, 27, 29, 31, 32, 34, 35, 37, 38, 39, 40, 42, 43, 45, 46, 47, 49, 50, 51, 52, 55, 57, 59, 60, 61, 62, 63, 64, 65, 66, 67, 68, 69, 73, 74, 77, 78, 84, 86, 87, 92, 93, 94, 95, 97, 98, 102, 105, 106, 108, 110, 111, 114, 115, 124, 127, 128, 130, 131, 132, 134, 135, 138, 139, 140, 141, 143, 144, 145, 146, 147, 148, 150, 152, 153, 154, 156, 161, 163, 168, 170, 173, 174, 176, 177, 178, 179, 184, 185, 188, 189, 192, 193, 194, 197, 199, 200, 201, 202, 204, 206, 207, 208, 212, 213, 215, 219, 220, 223, 225, 227, 228, 230, 233, 234, 235, 236, 237, 239, 243, 244, 245, 246, 247, 249, 250, 253, 254, 255, 256],
      "LargestImagePixelValue": [784, 766, 807, 761, 756, 752, 774, 829, 785, 719, 759, 714, 725, 731, 751, 759, 727, 713, 749, 733, 733, 757, 735, 760, 787, 729, 743, 740, 788, 803, 755, 769, 745, 738, 713, 741, 744, 786, 713, 730, 731, 747, 783, 753, 717, 744, 715, 735, 791, 718, 722, 765, 748, 746, 743, 739, 780, 750, 758, 736, 751, 729, 742, 758, 743, 722, 805, 742, 788, 791, 718, 727, 739, 799, 758, 780, 751, 762, 760, 797, 765, 703, 764, 760, 792, 747, 741, 746, 805, 730, 782, 734, 713, 756, 793, 735, 773, 735, 732, 818, 726, 766, 748, 751, 717, 744, 803, 754, 720, 719, 712, 753, 746, 737, 735, 759, 746, 735, 723, 718, 739, 725, 726, 732, 734, 745, 773, 740, 751, 805, 767, 747, 754, 735, 727, 738, 734, 716, 717, 769, 800, 751, 724],
      "WindowCenter": [427.0, 434.0, 430.0, 425.0, 424.0, 423.0, 426.0, 426.0, 427.0, 425.0, 425.0, 426.0, 427.0, 427.0, 426.0, 426.0, 425.0, 426.0, 426.0, 426.0, 426.0, 426.0, 426.0, 426.0, 426.0, 425.0, 426.0, 427.0, 427.0, 428.0, 428.0, 427.0, 426.0, 426.0, 425.0, 425.0, 425.0, 426.0, 425.0, 425.0, 425.0, 425.0, 426.0, 426.0, 427.0, 426.0, 425.0, 425.0, 425.0, 425.0, 425.0, 425.0, 425.0, 426.0, 427.0, 427.0, 427.0, 427.0, 427.0, 427.0, 427.0, 426.0, 427.0, 427.0, 426.0, 428.0, 432.0, 420.0, 424.0, 425.0, 425.0, 425.0, 426.0, 426.0, 426.0, 427.0, 427.0, 427.0, 427.0, 428.0, 428.0, 427.0, 428.0, 428.0, 428.0, 428.0, 428.0, 429.0, 430.0, 430.0, 428.0, 428.0, 427.0, 427.0, 427.0, 428.0, 428.0, 428.0, 428.0, 428.0, 427.0, 428.0, 428.0, 428.0, 429.0, 428.0, 428.0, 428.0, 429.0, 429.0, 429.0, 429.0, 429.0, 429.0, 429.0, 430.0, 428.0, 429.0, 428.0, 429.0, 429.0, 429.0, 429.0, 430.0, 430.0, 430.0, 430.0, 428.0, 428.0, 430.0, 429.0, 429.0, 430.0, 431.0, 431.0, 432.0, 433.0, 432.0, 432.0, 431.0, 432.0, 432.0, 432.0],
      "WindowWidth": [895.0, 910.0, 902.0, 892.0, 889.0, 888.0, 892.0, 894.0, 894.0, 892.0, 891.0, 893.0, 895.0, 894.0, 893.0, 892.0, 892.0, 893.0, 893.0, 893.0, 893.0, 893.0, 892.0, 893.0, 894.0, 892.0, 893.0, 894.0, 895.0, 896.0, 896.0, 894.0, 893.0, 893.0, 892.0, 893.0, 892.0, 893.0, 892.0, 892.0, 893.0, 892.0, 894.0, 893.0, 894.0, 895.0, 892.0, 892.0, 892.0, 892.0, 892.0, 891.0, 892.0, 893.0, 895.0, 895.0, 895.0, 895.0, 895.0, 895.0, 894.0, 893.0, 895.0, 895.0, 893.0, 898.0, 905.0, 883.0, 890.0, 891.0, 891.0, 892.0, 893.0, 893.0, 893.0, 894.0, 894.0, 896.0, 896.0, 897.0, 898.0, 896.0, 897.0, 897.0, 897.0, 897.0, 898.0, 899.0, 900.0, 901.0, 897.0, 897.0, 896.0, 895.0, 896.0, 896.0, 897.0, 896.0, 897.0, 897.0, 896.0, 898.0, 896.0, 897.0, 898.0, 897.0, 897.0, 897.0, 898.0, 898.0, 899.0, 898.0, 898.0, 899.0, 900.0, 901.0, 898.0, 900.0, 898.0, 899.0, 899.0, 900.0, 899.0, 902.0, 900.0, 901.0, 901.0, 898.0, 898.0, 900.0, 898.0, 899.0, 900.0, 903.0, 902.0, 904.0, 906.0, 906.0, 904.0, 902.0, 904.0, 903.0, 906.0]
    },
    "slices": {}
  }
}