{
  "AcquisitionMatrixPE": 64,
  "AcquisitionNumber": 1,
  "AcquisitionTime": "19:28:11.140000",
  "BandwidthPerPixelPhaseEncode": 40.064,
  "BaseResolution": 64,
  "BodyPartExamined": "BRAIN",
  "ConsistencyInfo": "N4_VD13D_LATEST_20130810",
  "ConversionSoftware": "dcm2niix",
  "ConversionSoftwareVersion": "v1.0.20191031",
  "DerivedVendorReportedEchoSpacing": 0.000780002,
  "DeviceSerialNumber": "67007",
  "DwellTime": 5.3e-06,
  "EchoTime": 0.03,
  "EchoTrainLength": 31,
  "EffectiveEchoSpacing": 0.000390001,
  "FlipAngle": 75,
  "ImageOrientationPatientDICOM": [0.999945, -0.00811917, 0.00659954, 0.00872639, 0.995159, -0.0978935],
  "ImageType": [
    "ORIGINAL",
    "PRIMARY",
    "M",
    "ND",
    "NORM",
    "MOSAIC"
],
  "ImagingFrequency": 123.211,
  "InPlanePhaseEncodingDirectionDICOM": "ROW",
  "InstitutionAddress": "Perth_Drive_100_London_Ontario_CA_N6A_5K8",
  "InstitutionName": "Robarts_Research_Institute",
  "InstitutionalDepartmentName": "CFMM",
  "MRAcquisitionType": "2D",
  "MagneticFieldStrength": 3,
  "Manufacturer": "Siemens",
  "ManufacturersModelName": "Prisma_fit",
  "Modality": "MR",
  "ParallelReductionFactorInPlane": 2,
  "PartialFourier": 1,
  "PatientPosition": "HFS",
  "PercentPhaseFOV": 100,
  "PhaseEncodingDirection": "i",
  "PhaseEncodingSteps": 63,
  "PhaseResolution": 1,
  "PixelBandwidth": 1475,
  "ProcedureStepDescription": "Owen_Naci",
  "ProtocolName": "Resting_State_deep_sed",
  "PulseSequenceDetails": "%SiemensSeq%_ep2d_bold",
  "ReceiveCoilActiveElements": "HEA;HEP",
  "ReceiveCoilName": "Head_32",
  "ReconMatrixPE": 64,
  "RefLinesPE": 24,
  "RepetitionTime": 2,
  "SAR": 0.0989456,
  "ScanOptions": "FS",
  "ScanningSequence": "EP",
  "SequenceName": "_epfid2d1_64",
  "SequenceVariant": "SK",
  "SeriesDescription": "Resting_State_deep_sed",
  "SeriesNumber": 13,
  "ShimSetting": [5228, -6231, -3842, 426, 26, -407, 171, 65],
  "SliceThickness": 3,
  "SliceTiming": [1.92, 1.86, 1.8, 1.74, 1.68, 1.62, 1.56, 1.5, 1.44, 1.38, 1.32, 1.26, 1.2, 1.14, 1.08, 1.02, 0.96, 0.9, 0.84, 0.78, 0.72, 0.66, 0.6, 0.54, 0.48, 0.42, 0.36, 0.3, 0.24, 0.18, 0.12, 0.06, 0],
  "SoftwareVersions": "syngo_MR_D13D",
  "SpacingBetweenSlices": 3.75,
  "StationName": "AWP67007",
  "TaskName": "restdeep",
  "TotalReadoutTime": 0.0245701,
  "TxRefAmp": 265.526,
  "dcmmeta_affine": [
    [-2.999835729598999, 0.026179170235991478, 0.021647922694683075, 93.91796112060547],
    [0.02435750514268875, 2.985476016998291, -0.367296427488327, -70.7354736328125],
    [0.019798630848526955, 0.29368045926094055, 3.7319061756134033, -62.25905990600586],
    [0.0, 0.0, 0.0, 1.0]
],
  "dcmmeta_reorient_transform": [
    [0.0, -1.0, 0.0, 63.0],
    [1.0, 0.0, 0.0, 0.0],
    [0.0, 0.0, 1.0, 0.0],
    [0.0, 0.0, 0.0, 1.0]
],
  "dcmmeta_shape": [64, 64, 33, 256],
  "dcmmeta_slice_dim": 2,
  "dcmmeta_version": 0.6,
  "global": {
    "const": {
      "AcquisitionMatrix": [0, 64, 64, 0],
      "AngioFlag": "N",
      "BitsAllocated": 16,
      "BitsStored": 12,
      "BodyPartExamined": "BRAIN",
      "Columns": 384,
      "EchoNumbers": 1,
      "EchoTime": 30.0,
      "EchoTrainLength": 31,
      "FlipAngle": 75.0,
      "HighBit": 11,
      "ImageOrientationPatient": [0.99994526106669, -0.0081191681652, 0.00659954381598, 0.00872639037563, 0.99515863808735, -0.0978934888087],
      "ImagePositionPatient": [-579.72964462822, -591.1284579723, 0.06390423475376],
      "ImageType": [
        "ORIGINAL",
        "PRIMARY",
        "M",
        "ND",
        "NORM",
        "MOSAIC"
],
      "ImagedNucleus": "1H",
      "ImagingFrequency": 123.211262,
      "InPlanePhaseEncodingDirection": "ROW",
      "MRAcquisitionType": "2D",
      "MagneticFieldStrength": 3.0,
      "Manufacturer": "SIEMENS",
      "ManufacturerModelName": "Prisma_fit",
      "Modality": "MR",
      "NumberOfAverages": 1.0,
      "NumberOfPhaseEncodingSteps": 63,
      "PercentPhaseFieldOfView": 100.0,
      "PercentSampling": 100.0,
      "PerformedProcedureStepStartTime": "180503.802000",
      "PhotometricInterpretation": "MONOCHROME2",
      "PixelBandwidth": 1475.0,
      "PixelRepresentation": 0,
      "PixelSpacing": [3.0, 3.0],
      "ProtocolName": "Resting State_deep sed",
      "RepetitionTime": 2000.0,
      "Rows": 384,
      "SAR": 0.09894555853665,
      "SamplesPerPixel": 1,
      "ScanOptions": "FS",
      "ScanningSequence": "EP",
      "SequenceName": "*epfid2d1_64",
      "SequenceVariant": "SK",
      "SeriesDescription": "Resting State_deep sed",
      "SeriesNumber": 13,
      "SeriesTime": "192909.854000",
      "SliceLocation": -54.488255464454,
      "SliceThickness": 3.0,
      "SmallestImagePixelValue": 0,
      "SoftwareVersions": "syngo MR D13D",
      "SpacingBetweenSlices": 3.7499998698128,
      "SpecificCharacterSet": "ISO_IR 100",
      "StudyID": "1",
      "StudyTime": "180503.692000",
      "TimeOfLastCalibration": ["123723.000000", "123723.000000"],
      "TransmitCoilName": "Body",
      "VariableFlipAngleFlag": "N",
      "WindowCenterWidthExplanation": "Algo1",
      "dBdt": 0.0},
    "slices": {}
  },
  "time": {
    "samples": {
      "AcquisitionNumber": [1, 2, 3, 4, 5, 6, 7, 8, 9, 10, 11, 12, 13, 14, 15, 16, 17, 18, 19, 20, 21, 22, 23, 24, 25, 26, 27, 28, 29, 30, 31, 32, 33, 34, 35, 36, 37, 38, 39, 40, 41, 42, 43, 44, 45, 46, 47, 48, 49, 50, 51, 52, 53, 54, 55, 56, 57, 58, 59, 60, 61, 62, 63, 64, 65, 66, 67, 68, 69, 70, 71, 72, 73, 74, 75, 76, 77, 78, 79, 80, 81, 82, 83, 84, 85, 86, 87, 88, 89, 90, 91, 92, 93, 94, 95, 96, 97, 98, 99, 100, 101, 102, 103, 104, 105, 106, 107, 108, 109, 110, 111, 112, 113, 114, 115, 116, 117, 118, 119, 120, 121, 122, 123, 124, 125, 126, 127, 128, 129, 130, 131, 132, 133, 134, 135, 136, 137, 138, 139, 140, 141, 142, 143, 144, 145, 146, 147, 148, 149, 150, 151, 152, 153, 154, 155, 156, 157, 158, 159, 160, 161, 162, 163, 164, 165, 166, 167, 168, 169, 170, 171, 172, 173, 174, 175, 176, 177, 178, 179, 180, 181, 182, 183, 184, 185, 186, 187, 188, 189, 190, 191, 192, 193, 194, 195, 196, 197, 198, 199, 200, 201, 202, 203, 204, 205, 206, 207, 208, 209, 210, 211, 212, 213, 214, 215, 216, 217, 218, 219, 220, 221, 222, 223, 224, 225, 226, 227, 228, 229, 230, 231, 232, 233, 234, 235, 236, 237, 238, 239, 240, 241, 242, 243, 244, 245, 246, 247, 248, 249, 250, 251, 252, 253, 254, 255, 256],
      "AcquisitionTime": ["192811.140000", "192813.140000", "192815.140000", "192817.140000", "192819.140000", "192821.140000", "192823.140000", "192825.140000", "192827.140000", "192829.140000", "192831.140000", "192833.140000", "192835.140000", "192837.140000", "192839.140000", "192841.140000", "192843.140000", "192845.140000", "192847.140000", "192849.140000", "192851.140000", "192853.140000", "192855.140000", "192857.140000", "192859.140000", "192901.140000", "192903.140000", "192905.140000", "192907.140000", "192909.140000", "192911.140000", "192913.140000", "192915.140000", "192917.140000", "192919.140000", "192921.140000", "192923.140000", "192925.140000", "192927.140000", "192929.140000", "192931.140000", "192933.140000", "192935.140000", "192937.140000", "192939.140000", "192941.140000", "192943.140000", "192945.140000", "192947.140000", "192949.140000", "192951.140000", "192953.140000", "192955.140000", "192957.140000", "192959.140000", "193001.140000", "193003.140000", "193005.140000", "193007.140000", "193009.140000", "193011.140000", "193013.140000", "193015.140000", "193017.140000", "193019.140000", "193021.140000", "193023.140000", "193025.140000", "193027.140000", "193029.140000", "193031.140000", "193033.140000", "193035.140000", "193037.140000", "193039.140000", "193041.140000", "193043.140000", "193045.140000", "193047.140000", "193049.140000", "193051.140000", "193053.140000", "193055.140000", "193057.140000", "193059.140000", "193101.140000", "193103.140000", "193105.140000", "193107.140000", "193109.140000", "193111.140000", "193113.140000", "193115.140000", "193117.140000", "193119.140000", "193121.140000", "193123.140000", "193125.140000", "193127.140000", "193129.140000", "193131.140000", "193133.140000", "193135.140000", "193137.140000", "193139.140000", "193141.140000", "193143.140000", "193145.140000", "193147.140000", "193149.140000", "193151.140000", "193153.140000", "193155.140000", "193157.140000", "193159.140000", "193201.140000", "193203.140000", "193205.140000", "193207.140000", "193209.140000", "193211.140000", "193213.140000", "193215.140000", "193217.140000", "193219.140000", "193221.140000", "193223.140000", "193225.140000", "193227.140000", "193229.140000", "193231.140000", "193233.140000", "193235.140000", "193237.140000", "193239.140000", "193241.140000", "193243.140000", "193245.140000", "193247.140000", "193249.140000", "193251.140000", "193253.140000", "193255.140000", "193257.140000", "193259.140000", "193301.140000", "193303.140000", "193305.140000", "193307.140000", "193309.140000", "193311.140000", "193313.140000", "193315.140000", "193317.140000", "193319.140000", "193321.140000", "193323.140000", "193325.140000", "193327.140000", "193329.140000", "193331.140000", "193333.140000", "193335.140000", "193337.140000", "193339.140000", "193341.140000", "193343.140000", "193345.140000", "193347.140000", "193349.140000", "193351.140000", "193353.140000", "193355.140000", "193357.140000", "193359.140000", "193401.140000", "193403.140000", "193405.140000", "193407.140000", "193409.140000", "193411.140000", "193413.140000", "193415.140000", "193417.140000", "193419.140000", "193421.140000", "193423.140000", "193425.140000", "193427.140000", "193429.140000", "193431.140000", "193433.140000", "193435.140000", "193437.140000", "193439.140000", "193441.140000", "193443.140000", "193445.140000", "193447.140000", "193449.140000", "193451.140000", "193453.140000", "193455.140000", "193457.140000", "193459.140000", "193501.140000", "193503.140000", "193505.140000", "193507.140000", "193509.140000", "193511.140000", "193513.140000", "193515.140000", "193517.140000", "193519.140000", "193521.140000", "193523.140000", "193525.140000", "193527.140000", "193529.140000", "193531.142500", "193533.142500", "193535.142500", "193537.142500", "193539.142500", "193541.142500", "193543.142500", "193545.142500", "193547.142500", "193549.142500", "193551.142500", "193553.142500", "193555.142500", "193557.142500", "193559.142500", "193601.142500", "193603.142500", "193605.142500", "193607.142500", "193609.142500", "193611.142500", "193613.142500", "193615.142500", "193617.142500", "193619.142500", "193621.142500", "193623.142500", "193625.142500", "193627.142500", "193629.142500", "193631.142500", "193633.142500", "193635.142500", "193637.142500", "193639.142500", "193641.142500"],
      "ContentTime": ["192909.859000", "192909.863000", "192909.866000", "192909.868000", "192909.871000", "192909.874000", "192909.876000", "192909.879000", "192909.881000", "192909.884000", "192909.887000", "192909.889000", "192909.892000", "192909.894000", "192909.897000", "192909.900000", "192909.902000", "192909.905000", "192909.908000", "192909.910000", "192909.913000", "192909.916000", "192909.918000", "192909.925000", "192909.928000", "192909.930000", "192909.933000", "192909.936000", "192909.939000", "192949.851000", "192949.854000", "192949.857000", "192949.860000", "192949.862000", "192949.865000", "192949.868000", "192949.870000", "192949.873000", "192949.876000", "192949.879000", "192949.882000", "192949.884000", "192949.887000", "192949.890000", "192949.893000", "192949.895000", "192949.898000", "192949.901000", "192949.903000", "193029.851000", "193029.854000", "193029.857000", "193029.860000", "193029.863000", "193029.865000", "193029.868000", "193029.871000", "193029.874000", "193029.877000", "193029.880000", "193029.882000", "193029.885000", "193029.888000", "193029.891000", "193029.894000", "193029.896000", "193029.899000", "193029.902000", "193029.905000", "193109.852000", "193109.855000", "193109.858000", "193109.860000", "193109.863000", "193109.866000", "193109.868000", "193109.871000", "193109.874000", "193109.876000", "193109.879000", "193109.881000", "193109.884000", "193109.887000", "193109.889000", "193109.892000", "193109.894000", "193109.897000", "193109.900000", "193109.902000", "193149.852000", "193149.855000", "193149.858000", "193149.861000", "193149.863000", "193149.866000", "193149.868000", "193149.871000", "193149.874000", "193149.876000", "193149.879000", "193149.882000", "193149.884000", "193149.887000", "193149.889000", "193149.892000", "193149.895000", "193149.897000", "193149.900000", "193149.902000", "193229.851000", "193229.854000", "193229.857000", "193229.859000", "193229.862000", "193229.865000", "193229.867000", "193229.870000", "193229.873000", "193229.875000", "193229.878000", "193229.880000", "193229.883000", "193229.886000", "193229.888000", "193229.891000", "193229.894000", "193229.897000", "193229.900000", "193229.903000", "193309.852000", "193309.856000", "193309.858000", "193309.861000", "193309.864000", "193309.866000", "193309.869000", "193309.872000", "193309.874000", "193309.877000", "193309.879000", "193309.882000", "193309.885000", "193309.887000", "193309.890000", "193309.893000", "193309.895000", "193309.898000", "193309.901000", "193309.903000", "193329.852000", "193329.855000", "193329.858000", "193329.860000", "193329.863000", "193329.866000", "193329.868000", "193329.871000", "193329.873000", "193329.876000", "193409.852000", "193409.855000", "193409.858000", "193409.861000", "193409.863000", "193409.866000", "193409.869000", "193409.871000", "193409.874000", "193409.876000", "193409.879000", "193409.882000", "193409.884000", "193409.887000", "193409.889000", "193409.892000", "193409.895000", "193409.897000", "193409.900000", "193409.903000", "193449.851000", "193449.854000", "193449.857000", "193449.859000", "193449.862000", "193449.865000", "193449.867000", "193449.870000", "193449.872000", "193449.875000", "193449.878000", "193449.880000", "193449.883000", "193449.886000", "193449.888000", "193449.897000", "193449.900000", "193449.902000", "193449.905000", "193449.908000", "193529.852000", "193529.855000", "193529.864000", "193529.867000", "193529.870000", "193529.873000", "193529.876000", "193529.878000", "193529.881000", "193529.884000", "193529.887000", "193529.890000", "193529.893000", "193529.895000", "193529.898000", "193529.901000", "193529.904000", "193529.907000", "193529.910000", "193529.912000", "193609.852000", "193609.855000", "193609.858000", "193609.860000", "193609.863000", "193609.866000", "193609.869000", "193609.871000", "193609.874000", "193609.877000", "193609.879000", "193609.882000", "193609.885000", "193609.888000", "193609.890000", "193609.893000", "193609.896000", "193609.899000", "193609.902000", "193609.904000", "193642.011000", "193642.014000", "193642.018000", "193642.022000", "193642.025000", "193642.028000", "193642.031000", "193642.037000", "193642.042000", "193642.045000", "193642.049000", "193642.052000", "193642.055000", "193642.058000", "193642.061000", "193642.064000", "193642.067000"],
      "InstanceCreationTime": ["192909.859000", "192909.863000", "192909.866000", "192909.868000", "192909.871000", "192909.874000", "192909.876000", "192909.879000", "192909.881000", "192909.884000", "192909.887000", "192909.889000", "192909.892000", "192909.894000", "192909.897000", "192909.900000", "192909.902000", "192909.905000", "192909.908000", "192909.910000", "192909.913000", "192909.916000", "192909.918000", "192909.925000", "192909.928000", "192909.930000", "192909.933000", "192909.936000", "192909.939000", "192949.851000", "192949.854000", "192949.857000", "192949.860000", "192949.862000", "192949.865000", "192949.868000", "192949.870000", "192949.873000", "192949.876000", "192949.879000", "192949.882000", "192949.884000", "192949.887000", "192949.890000", "192949.893000", "192949.895000", "192949.898000", "192949.901000", "192949.903000", "193029.851000", "193029.854000", "193029.857000", "193029.860000", "193029.863000", "193029.865000", "193029.868000", "193029.871000", "193029.874000", "193029.877000", "193029.880000", "193029.882000", "193029.885000", "193029.888000", "193029.891000", "193029.894000", "193029.896000", "193029.899000", "193029.902000", "193029.905000", "193109.852000", "193109.855000", "193109.858000", "193109.860000", "193109.863000", "193109.866000", "193109.868000", "193109.871000", "193109.874000", "193109.876000", "193109.879000", "193109.881000", "193109.884000", "193109.887000", "193109.889000", "193109.892000", "193109.894000", "193109.897000", "193109.900000", "193109.902000", "193149.852000", "193149.855000", "193149.858000", "193149.861000", "193149.863000", "193149.866000", "193149.868000", "193149.871000", "193149.874000", "193149.876000", "193149.879000", "193149.882000", "193149.884000", "193149.887000", "193149.889000", "193149.892000", "193149.895000", "193149.897000", "193149.900000", "193149.902000", "193229.851000", "193229.854000", "193229.857000", "193229.859000", "193229.862000", "193229.865000", "193229.867000", "193229.870000", "193229.873000", "193229.875000", "193229.878000", "193229.880000", "193229.883000", "193229.886000", "193229.888000", "193229.891000", "193229.894000", "193229.897000", "193229.900000", "193229.903000", "193309.852000", "193309.856000", "193309.858000", "193309.861000", "193309.864000", "193309.866000", "193309.869000", "193309.872000", "193309.874000", "193309.877000", "193309.879000", "193309.882000", "193309.885000", "193309.887000", "193309.890000", "193309.893000", "193309.895000", "193309.898000", "193309.901000", "193309.903000", "193329.852000", "193329.855000", "193329.858000", "193329.860000", "193329.863000", "193329.866000", "193329.868000", "193329.871000", "193329.873000", "193329.876000", "193409.852000", "193409.855000", "193409.858000", "193409.861000", "193409.863000", "193409.866000", "193409.869000", "193409.871000", "193409.874000", "193409.876000", "193409.879000", "193409.882000", "193409.884000", "193409.887000", "193409.889000", "193409.892000", "193409.895000", "193409.897000", "193409.900000", "193409.903000", "193449.851000", "193449.854000", "193449.857000", "193449.859000", "193449.862000", "193449.865000", "193449.867000", "193449.870000", "193449.872000", "193449.875000", "193449.878000", "193449.880000", "193449.883000", "193449.886000", "193449.888000", "193449.897000", "193449.900000", "193449.902000", "193449.905000", "193449.908000", "193529.852000", "193529.855000", "193529.864000", "193529.867000", "193529.870000", "193529.873000", "193529.876000", "193529.878000", "193529.881000", "193529.884000", "193529.887000", "193529.890000", "193529.893000", "193529.895000", "193529.898000", "193529.901000", "193529.904000", "193529.907000", "193529.910000", "193529.912000", "193609.852000", "193609.855000", "193609.858000", "193609.860000", "193609.863000", "193609.866000", "193609.869000", "193609.871000", "193609.874000", "193609.877000", "193609.879000", "193609.882000", "193609.885000", "193609.888000", "193609.890000", "193609.893000", "193609.896000", "193609.899000", "193609.902000", "193609.904000", "193642.011000", "193642.014000", "193642.018000", "193642.022000", "193642.025000", "193642.028000", "193642.031000", "193642.037000", "193642.042000", "193642.045000", "193642.049000", "193642.052000", "193642.055000", "193642.058000", "193642.061000", "193642.064000", "193642.067000"],
      "InstanceNumber": [1, 2, 3, 4, 5, 6, 7, 8, 9, 10, 11, 12, 13, 14, 15, 16, 17, 18, 19, 20, 21, 22, 23, 24, 25, 26, 27, 28, 29, 30, 31, 32, 33, 34, 35, 36, 37, 38, 39, 40, 41, 42, 43, 44, 45, 46, 47, 48, 49, 50, 51, 52, 53, 54, 55, 56, 57, 58, 59, 60, 61, 62, 63, 64, 65, 66, 67, 68, 69, 70, 71, 72, 73, 74, 75, 76, 77, 78, 79, 80, 81, 82, 83, 84, 85, 86, 87, 88, 89, 90, 91, 92, 93, 94, 95, 96, 97, 98, 99, 100, 101, 102, 103, 104, 105, 106, 107, 108, 109, 110, 111, 112, 113, 114, 115, 116, 117, 118, 119, 120, 121, 122, 123, 124, 125, 126, 127, 128, 129, 130, 131, 132, 133, 134, 135, 136, 137, 138, 139, 140, 141, 142, 143, 144, 145, 146, 147, 148, 149, 150, 151, 152, 153, 154, 155, 156, 157, 158, 159, 160, 161, 162, 163, 164, 165, 166, 167, 168, 169, 170, 171, 172, 173, 174, 175, 176, 177, 178, 179, 180, 181, 182, 183, 184, 185, 186, 187, 188, 189, 190, 191, 192, 193, 194, 195, 196, 197, 198, 199, 200, 201, 202, 203, 204, 205, 206, 207, 208, 209, 210, 211, 212, 213, 214, 215, 216, 217, 218, 219, 220, 221, 222, 223, 224, 225, 226, 227, 228, 229, 230, 231, 232, 233, 234, 235, 236, 237, 238, 239, 240, 241, 242, 243, 244, 245, 246, 247, 248, 249, 250, 251, 252, 253, 254, 255, 256],
      "LargestImagePixelValue": [798, 773, 849, 769, 746, 786, 763, 835, 823, 780, 754, 816, 806, 793, 811, 771, 795, 802, 791, 837, 779, 761, 793, 811, 733, 802, 781, 817, 817, 811, 788, 793, 816, 754, 796, 797, 801, 784, 801, 781, 810, 820, 789, 794, 815, 770, 805, 836, 747, 788, 778, 812, 832, 770, 796, 763, 835, 770, 796, 823, 782, 790, 821, 813, 839, 768, 807, 818, 764, 769, 804, 760, 805, 780, 802, 790, 809, 815, 757, 780, 764, 770, 766, 783, 778, 773, 787, 758, 806, 795, 839, 769, 777, 811, 778, 793, 821, 804, 785, 780, 780, 760, 779, 823, 839, 799, 768, 792, 813, 789, 791, 768, 794, 744, 820, 812, 771, 819, 754, 765, 829, 772, 781, 738, 763, 782, 786, 844, 796, 804, 806, 759, 759, 798, 777, 768, 837, 797, 801, 760, 792, 870, 765, 761, 774, 775, 822, 741, 764, 760, 762, 801, 793, 773, 832, 764, 792, 756, 786, 772, 769, 813, 765, 781, 860, 772, 815, 756, 763, 814, 799, 800, 819, 780, 816, 766, 778, 819, 767, 827, 766, 773, 832, 740, 768, 788, 776, 777, 800, 826, 839, 771, 796, 769, 805, 823, 771, 806, 819, 808, 767, 781, 859, 793, 812, 836, 752, 788, 803, 777, 785, 821, 763, 801, 829, 776, 779, 795, 772, 780, 833, 762, 799, 788, 792, 793, 771, 803, 835, 771, 792, 841, 778, 794, 811, 792, 813, 750, 793, 836, 768, 783, 813, 814, 805, 775, 816, 758, 854, 783, 769, 812, 750, 777, 784, 807],
      "WindowCenter": [436.0, 433.0, 434.0, 434.0, 432.0, 433.0, 433.0, 433.0, 434.0, 435.0, 433.0, 434.0, 434.0, 434.0, 433.0, 435.0, 433.0, 433.0, 434.0, 433.0, 434.0, 433.0, 432.0, 434.0, 432.0, 432.0, 433.0, 433.0, 432.0, 435.0, 434.0, 433.0, 435.0, 434.0, 435.0, 437.0, 435.0, 432.0, 436.0, 434.0, 437.0, 435.0, 436.0, 435.0, 437.0, 437.0, 437.0, 438.0, 436.0, 437.0, 438.0, 437.0, 439.0, 437.0, 438.0, 439.0, 439.0, 441.0, 438.0, 441.0, 440.0, 439.0, 441.0, 441.0, 441.0, 442.0, 441.0, 444.0, 443.0, 443.0, 445.0, 444.0, 447.0, 446.0, 446.0, 445.0, 445.0, 447.0, 445.0, 447.0, 445.0, 447.0, 446.0, 445.0, 448.0, 446.0, 445.0, 445.0, 449.0, 447.0, 448.0, 447.0, 446.0, 448.0, 445.0, 447.0, 448.0, 446.0, 446.0, 448.0, 447.0, 446.0, 445.0, 448.0, 447.0, 446.0, 448.0, 447.0, 450.0, 447.0, 449.0, 448.0, 448.0, 447.0, 446.0, 448.0, 446.0, 447.0, 446.0, 445.0, 448.0, 446.0, 447.0, 445.0, 445.0, 447.0, 445.0, 447.0, 446.0, 444.0, 447.0, 445.0, 445.0, 446.0, 444.0, 446.0, 446.0, 445.0, 446.0, 446.0, 445.0, 448.0, 445.0, 444.0, 447.0, 445.0, 447.0, 445.0, 445.0, 446.0, 445.0, 447.0, 446.0, 445.0, 449.0, 444.0, 446.0, 444.0, 445.0, 445.0, 444.0, 446.0, 445.0, 444.0, 447.0, 444.0, 445.0, 445.0, 443.0, 446.0, 444.0, 444.0, 445.0, 443.0, 446.0, 444.0, 443.0, 446.0, 443.0, 445.0, 445.0, 443.0, 446.0, 444.0, 443.0, 445.0, 443.0, 444.0, 444.0, 443.0, 445.0, 442.0, 443.0, 444.0, 443.0, 443.0, 444.0, 443.0, 442.0, 443.0, 442.0, 441.0, 444.0, 441.0, 442.0, 442.0, 441.0, 439.0, 441.0, 440.0, 439.0, 442.0, 441.0, 438.0, 443.0, 442.0, 442.0, 442.0, 438.0, 441.0, 442.0, 441.0, 443.0, 443.0, 442.0, 444.0, 444.0, 440.0, 444.0, 442.0, 443.0, 444.0, 442.0, 445.0, 444.0, 443.0, 444.0, 445.0, 444.0, 447.0, 446.0, 445.0, 448.0, 447.0, 449.0, 447.0, 447.0, 448.0, 448.0, 451.0, 448.0, 450.0, 448.0, 448.0, 449.0, 448.0],
      "WindowWidth": [912.0, 907.0, 908.0, 907.0, 905.0, 907.0, 907.0, 905.0, 908.0, 909.0, 906.0, 908.0, 908.0, 907.0, 907.0, 909.0, 905.0, 907.0, 908.0, 906.0, 908.0, 906.0, 905.0, 909.0, 905.0, 905.0, 906.0, 906.0, 904.0, 909.0, 907.0, 906.0, 910.0, 908.0, 911.0, 914.0, 909.0, 904.0, 911.0, 907.0, 913.0, 911.0, 912.0, 910.0, 915.0, 913.0, 913.0, 915.0, 913.0, 914.0, 916.0, 913.0, 918.0, 914.0, 917.0, 917.0, 917.0, 921.0, 916.0, 921.0, 919.0, 918.0, 922.0, 920.0, 922.0, 922.0, 922.0, 928.0, 925.0, 926.0, 929.0, 926.0, 933.0, 931.0, 931.0, 928.0, 929.0, 932.0, 929.0, 933.0, 929.0, 932.0, 930.0, 929.0, 935.0, 931.0, 929.0, 930.0, 936.0, 931.0, 934.0, 932.0, 931.0, 935.0, 929.0, 933.0, 933.0, 931.0, 931.0, 935.0, 933.0, 930.0, 929.0, 934.0, 932.0, 931.0, 934.0, 932.0, 937.0, 933.0, 936.0, 935.0, 934.0, 932.0, 930.0, 934.0, 930.0, 932.0, 930.0, 929.0, 934.0, 929.0, 933.0, 929.0, 929.0, 932.0, 929.0, 933.0, 929.0, 928.0, 933.0, 928.0, 928.0, 931.0, 926.0, 931.0, 930.0, 928.0, 931.0, 930.0, 928.0, 934.0, 929.0, 928.0, 932.0, 928.0, 932.0, 929.0, 929.0, 930.0, 928.0, 933.0, 930.0, 929.0, 935.0, 927.0, 931.0, 927.0, 928.0, 929.0, 926.0, 930.0, 928.0, 926.0, 932.0, 926.0, 930.0, 928.0, 925.0, 930.0, 926.0, 927.0, 928.0, 924.0, 930.0, 926.0, 925.0, 930.0, 925.0, 928.0, 928.0, 924.0, 930.0, 926.0, 925.0, 928.0, 924.0, 928.0, 927.0, 924.0, 929.0, 923.0, 924.0, 926.0, 924.0, 925.0, 926.0, 925.0, 923.0, 925.0, 922.0, 921.0, 926.0, 921.0, 923.0, 923.0, 921.0, 918.0, 921.0, 919.0, 918.0, 922.0, 920.0, 915.0, 925.0, 923.0, 923.0, 923.0, 915.0, 921.0, 923.0, 922.0, 925.0, 924.0, 923.0, 926.0, 925.0, 920.0, 926.0, 923.0, 925.0, 926.0, 923.0, 929.0, 927.0, 925.0, 928.0, 929.0, 927.0, 933.0, 930.0, 929.0, 935.0, 932.0, 936.0, 932.0, 933.0, 934.0, 934.0, 941.0, 934.0, 939.0, 934.0, 934.0, 937.0, 934.0]
    },
    "slices": {}
  }
}