{
  "AcquisitionMatrixPE": 64,
  "AcquisitionNumber": 1,
  "AcquisitionTime": "18:17:48.747500",
  "BandwidthPerPixelPhaseEncode": 40.064,
  "BaseResolution": 64,
  "BodyPartExamined": "BRAIN",
  "ConsistencyInfo": "N4_VD13D_LATEST_20130810",
  "ConversionSoftware": "dcm2niix",
  "ConversionSoftwareVersion": "v1.0.20191031",
  "DerivedVendorReportedEchoSpacing": 0.000780002,
  "DeviceSerialNumber": "67007",
  "DwellTime": 5.3e-06,
  "EchoTime": 0.03,
  "EchoTrainLength": 31,
  "EffectiveEchoSpacing": 0.000390001,
  "FlipAngle": 75,
  "ImageOrientationPatientDICOM": [0.999945, -0.00811917, 0.00659954, 0.00872639, 0.995159, -0.0978935],
  "ImageType": [
    "ORIGINAL",
    "PRIMARY",
    "M",
    "ND",
    "NORM",
    "MOSAIC"
],
  "ImagingFrequency": 123.211,
  "InPlanePhaseEncodingDirectionDICOM": "ROW",
  "InstitutionAddress": "Perth_Drive_100_London_Ontario_CA_N6A_5K8",
  "InstitutionName": "Robarts_Research_Institute",
  "InstitutionalDepartmentName": "CFMM",
  "MRAcquisitionType": "2D",
  "MagneticFieldStrength": 3,
  "Manufacturer": "Siemens",
  "ManufacturersModelName": "Prisma_fit",
  "Modality": "MR",
  "ParallelReductionFactorInPlane": 2,
  "PartialFourier": 1,
  "PatientPosition": "HFS",
  "PercentPhaseFOV": 100,
  "PhaseEncodingDirection": "i",
  "PhaseEncodingSteps": 63,
  "PhaseResolution": 1,
  "PixelBandwidth": 1475,
  "ProcedureStepDescription": "Owen_Naci",
  "ProtocolName": "taken",
  "PulseSequenceDetails": "%SiemensSeq%_ep2d_bold",
  "ReceiveCoilActiveElements": "HEA;HEP",
  "ReceiveCoilName": "Head_32",
  "ReconMatrixPE": 64,
  "RefLinesPE": 24,
  "RepetitionTime": 2,
  "SAR": 0.0987621,
  "ScanOptions": "FS",
  "ScanningSequence": "EP",
  "SequenceName": "_epfid2d1_64",
  "SequenceVariant": "SK",
  "SeriesDescription": "taken",
  "SeriesNumber": 3,
  "ShimSetting": [5228, -6231, -3842, 426, 26, -407, 171, 65],
  "SliceThickness": 3,
  "SliceTiming": [1.92, 1.86, 1.8, 1.74, 1.68, 1.62, 1.56, 1.5, 1.44, 1.38, 1.32, 1.26, 1.2, 1.14, 1.08, 1.02, 0.96, 0.9, 0.84, 0.78, 0.72, 0.66, 0.6, 0.54, 0.48, 0.42, 0.36, 0.3, 0.24, 0.18, 0.12, 0.06, 0],
  "SoftwareVersions": "syngo_MR_D13D",
  "SpacingBetweenSlices": 3.75,
  "StationName": "AWP67007",
  "TaskName": "audio",
  "TotalReadoutTime": 0.0245701,
  "TxRefAmp": 265.526,
  "dcmmeta_affine": [
    [-2.999835729598999, 0.026179170235991478, 0.021647922694683075, 93.91796112060547],
    [0.02435750514268875, 2.985476016998291, -0.367296427488327, -70.7354736328125],
    [0.019798630848526955, 0.29368045926094055, 3.7319061756134033, -62.25905990600586],
    [0.0, 0.0, 0.0, 1.0]
],
  "dcmmeta_reorient_transform": [
    [0.0, -1.0, 0.0, 63.0],
    [1.0, 0.0, 0.0, 0.0],
    [0.0, 0.0, 1.0, 0.0],
    [0.0, 0.0, 0.0, 1.0]
],
  "dcmmeta_shape": [64, 64, 33, 155],
  "dcmmeta_slice_dim": 2,
  "dcmmeta_version": 0.6,
  "global": {
    "const": {
      "AcquisitionMatrix": [0, 64, 64, 0],
      "AngioFlag": "N",
      "BitsAllocated": 16,
      "BitsStored": 12,
      "BodyPartExamined": "BRAIN",
      "Columns": 384,
      "EchoNumbers": 1,
      "EchoTime": 30.0,
      "EchoTrainLength": 31,
      "FlipAngle": 75.0,
      "HighBit": 11,
      "ImageOrientationPatient": [0.99994526106669, -0.0081191681652, 0.00659954381598, 0.00872639037563, 0.99515863808735, -0.0978934888087],
      "ImagePositionPatient": [-579.72964462822, -591.1284579723, 0.06390423475376],
      "ImageType": [
        "ORIGINAL",
        "PRIMARY",
        "M",
        "ND",
        "NORM",
        "MOSAIC"
],
      "ImagedNucleus": "1H",
      "ImagingFrequency": 123.21126,
      "InPlanePhaseEncodingDirection": "ROW",
      "MRAcquisitionType": "2D",
      "MagneticFieldStrength": 3.0,
      "Manufacturer": "SIEMENS",
      "ManufacturerModelName": "Prisma_fit",
      "Modality": "MR",
      "NumberOfAverages": 1.0,
      "NumberOfPhaseEncodingSteps": 63,
      "PercentPhaseFieldOfView": 100.0,
      "PercentSampling": 100.0,
      "PerformedProcedureStepStartTime": "180503.802000",
      "PhotometricInterpretation": "MONOCHROME2",
      "PixelBandwidth": 1475.0,
      "PixelRepresentation": 0,
      "PixelSpacing": [3.0, 3.0],
      "ProtocolName": "taken",
      "RepetitionTime": 2000.0,
      "Rows": 384,
      "SAR": 0.09876205189719,
      "SamplesPerPixel": 1,
      "ScanOptions": "FS",
      "ScanningSequence": "EP",
      "SequenceName": "*epfid2d1_64",
      "SequenceVariant": "SK",
      "SeriesDescription": "taken",
      "SeriesNumber": 3,
      "SeriesTime": "181829.853000",
      "SliceLocation": -54.488255464454,
      "SliceThickness": 3.0,
      "SmallestImagePixelValue": 0,
      "SoftwareVersions": "syngo MR D13D",
      "SpacingBetweenSlices": 3.7499998698128,
      "SpecificCharacterSet": "ISO_IR 100",
      "StudyID": "1",
      "StudyTime": "180503.692000",
      "TimeOfLastCalibration": ["123723.000000", "123723.000000"],
      "TransmitCoilName": "Body",
      "VariableFlipAngleFlag": "N",
      "WindowCenterWidthExplanation": "Algo1",
      "dBdt": 0.0},
    "slices": {}
  },
  "time": {
    "samples": {
      "AcquisitionNumber": [1, 2, 3, 4, 5, 6, 7, 8, 9, 10, 11, 12, 13, 14, 15, 16, 17, 18, 19, 20, 21, 22, 23, 24, 25, 26, 27, 28, 29, 30, 31, 32, 33, 34, 35, 36, 37, 38, 39, 40, 41, 42, 43, 44, 45, 46, 47, 48, 49, 50, 51, 52, 53, 54, 55, 56, 57, 58, 59, 60, 61, 62, 63, 64, 65, 66, 67, 68, 69, 70, 71, 72, 73, 74, 75, 76, 77, 78, 79, 80, 81, 82, 83, 84, 85, 86, 87, 88, 89, 90, 91, 92, 93, 94, 95, 96, 97, 98, 99, 100, 101, 102, 103, 104, 105, 106, 107, 108, 109, 110, 111, 112, 113, 114, 115, 116, 117, 118, 119, 120, 121, 122, 123, 124, 125, 126, 127, 128, 129, 130, 131, 132, 133, 134, 135, 136, 137, 138, 139, 140, 141, 142, 143, 144, 145, 146, 147, 148, 149, 150, 151, 152, 153, 154, 155],
      "AcquisitionTime": ["181748.747500", "181750.747500", "181752.747500", "181754.747500", "181756.747500", "181758.747500", "181800.747500", "181802.747500", "181804.747500", "181806.747500", "181808.747500", "181810.747500", "181812.747500", "181814.747500", "181816.747500", "181818.747500", "181820.747500", "181822.747500", "181824.747500", "181826.747500", "181828.747500", "181830.747500", "181832.747500", "181834.747500", "181836.747500", "181838.747500", "181840.747500", "181842.747500", "181844.747500", "181846.747500", "181848.747500", "181850.747500", "181852.747500", "181854.747500", "181856.747500", "181858.747500", "181900.747500", "181902.747500", "181904.747500", "181906.747500", "181908.747500", "181910.747500", "181912.747500", "181914.747500", "181916.747500", "181918.747500", "181920.747500", "181922.747500", "181924.747500", "181926.747500", "181928.747500", "181930.747500", "181932.747500", "181934.747500", "181936.747500", "181938.747500", "181940.747500", "181942.747500", "181944.747500", "181946.747500", "181948.747500", "181950.747500", "181952.747500", "181954.747500", "181956.747500", "181958.747500", "182000.747500", "182002.747500", "182004.747500", "182006.747500", "182008.747500", "182010.747500", "182012.747500", "182014.747500", "182016.747500", "182018.747500", "182020.747500", "182022.747500", "182024.747500", "182026.747500", "182028.747500", "182030.747500", "182032.747500", "182034.747500", "182036.747500", "182038.747500", "182040.747500", "182042.747500", "182044.747500", "182046.747500", "182048.747500", "182050.747500", "182052.747500", "182054.747500", "182056.747500", "182058.747500", "182100.747500", "182102.747500", "182104.747500", "182106.747500", "182108.747500", "182110.747500", "182112.747500", "182114.747500", "182116.747500", "182118.747500", "182120.747500", "182122.747500", "182124.747500", "182126.747500", "182128.747500", "182130.747500", "182132.747500", "182134.747500", "182136.747500", "182138.747500", "182140.747500", "182142.747500", "182144.747500", "182146.747500", "182148.747500", "182150.747500", "182152.747500", "182154.747500", "182156.747500", "182158.747500", "182200.747500", "182202.750000", "182204.750000", "182206.750000", "182208.750000", "182210.750000", "182212.750000", "182214.750000", "182216.750000", "182218.750000", "182220.750000", "182222.750000", "182224.750000", "182226.750000", "182228.750000", "182230.750000", "182232.750000", "182234.750000", "182236.750000", "182238.750000", "182240.750000", "182242.750000", "182244.750000", "182246.750000", "182248.750000", "182250.750000", "182252.750000", "182254.750000", "182256.750000"],
      "ContentTime": ["181829.857000", "181829.861000", "181829.864000", "181829.867000", "181829.869000", "181829.872000", "181829.875000", "181829.877000", "181829.880000", "181829.883000", "181829.892000", "181829.895000", "181829.897000", "181829.900000", "181829.903000", "181829.905000", "181829.908000", "181829.911000", "181829.913000", "181829.916000", "181829.919000", "181909.850000", "181909.854000", "181909.856000", "181909.859000", "181909.861000", "181909.864000", "181909.867000", "181909.870000", "181909.873000", "181909.875000", "181909.878000", "181909.881000", "181909.883000", "181909.886000", "181909.889000", "181909.891000", "181909.894000", "181909.897000", "181909.900000", "181909.903000", "181949.852000", "181949.855000", "181949.858000", "181949.861000", "181949.863000", "181949.866000", "181949.869000", "181949.871000", "181949.874000", "181949.877000", "181949.879000", "181949.882000", "181949.884000", "181949.887000", "181949.890000", "181949.893000", "181949.895000", "181949.898000", "181949.901000", "181949.903000", "182029.851000", "182029.854000", "182029.857000", "182029.859000", "182029.862000", "182029.865000", "182029.868000", "182029.870000", "182029.873000", "182029.876000", "182029.878000", "182029.881000", "182029.884000", "182029.887000", "182029.889000", "182029.892000", "182029.894000", "182029.898000", "182029.900000", "182029.903000", "182109.851000", "182109.854000", "182109.857000", "182109.859000", "182109.862000", "182109.865000", "182109.867000", "182109.870000", "182109.872000", "182109.875000", "182109.878000", "182109.880000", "182109.883000", "182109.886000", "182109.888000", "182109.891000", "182109.894000", "182109.897000", "182109.899000", "182109.902000", "182149.852000", "182149.855000", "182149.858000", "182149.860000", "182149.863000", "182149.866000", "182149.869000", "182149.871000", "182149.874000", "182149.877000", "182149.879000", "182149.882000", "182149.884000", "182149.887000", "182149.890000", "182149.893000", "182149.895000", "182149.913000", "182149.915000", "182149.918000", "182229.850000", "182229.853000", "182229.856000", "182229.859000", "182229.861000", "182229.864000", "182229.867000", "182229.869000", "182229.872000", "182229.875000", "182229.877000", "182229.880000", "182229.883000", "182229.885000", "182229.888000", "182229.891000", "182229.893000", "182229.897000", "182229.899000", "182229.902000", "182257.152000", "182257.159000", "182257.162000", "182257.165000", "182257.167000", "182257.170000", "182257.173000", "182257.176000", "182257.179000", "182257.182000", "182257.185000", "182257.187000", "182257.190000", "182257.194000"],
      "InstanceCreationTime": ["181829.857000", "181829.861000", "181829.864000", "181829.867000", "181829.869000", "181829.872000", "181829.875000", "181829.877000", "181829.880000", "181829.883000", "181829.892000", "181829.895000", "181829.897000", "181829.900000", "181829.903000", "181829.905000", "181829.908000", "181829.911000", "181829.913000", "181829.916000", "181829.919000", "181909.850000", "181909.854000", "181909.856000", "181909.859000", "181909.861000", "181909.864000", "181909.867000", "181909.870000", "181909.873000", "181909.875000", "181909.878000", "181909.881000", "181909.883000", "181909.886000", "181909.889000", "181909.891000", "181909.894000", "181909.897000", "181909.900000", "181909.903000", "181949.852000", "181949.855000", "181949.858000", "181949.861000", "181949.863000", "181949.866000", "181949.869000", "181949.871000", "181949.874000", "181949.877000", "181949.879000", "181949.882000", "181949.884000", "181949.887000", "181949.890000", "181949.893000", "181949.895000", "181949.898000", "181949.901000", "181949.903000", "182029.851000", "182029.854000", "182029.857000", "182029.859000", "182029.862000", "182029.865000", "182029.868000", "182029.870000", "182029.873000", "182029.876000", "182029.878000", "182029.881000", "182029.884000", "182029.887000", "182029.889000", "182029.892000", "182029.894000", "182029.898000", "182029.900000", "182029.903000", "182109.851000", "182109.854000", "182109.857000", "182109.859000", "182109.862000", "182109.865000", "182109.867000", "182109.870000", "182109.872000", "182109.875000", "182109.878000", "182109.880000", "182109.883000", "182109.886000", "182109.888000", "182109.891000", "182109.894000", "182109.897000", "182109.899000", "182109.902000", "182149.852000", "182149.855000", "182149.858000", "182149.860000", "182149.863000", "182149.866000", "182149.869000", "182149.871000", "182149.874000", "182149.877000", "182149.879000", "182149.882000", "182149.884000", "182149.887000", "182149.890000", "182149.893000", "182149.895000", "182149.913000", "182149.915000", "182149.918000", "182229.850000", "182229.853000", "182229.856000", "182229.859000", "182229.861000", "182229.864000", "182229.867000", "182229.869000", "182229.872000", "182229.875000", "182229.877000", "182229.880000", "182229.883000", "182229.885000", "182229.888000", "182229.891000", "182229.893000", "182229.897000", "182229.899000", "182229.902000", "182257.152000", "182257.159000", "182257.162000", "182257.165000", "182257.167000", "182257.170000", "182257.173000", "182257.176000", "182257.179000", "182257.182000", "182257.185000", "182257.187000", "182257.190000", "182257.194000"],
      "InstanceNumber": [1, 2, 3, 4, 5, 6, 7, 8, 9, 10, 11, 12, 13, 14, 15, 16, 17, 18, 19, 20, 21, 22, 23, 24, 25, 26, 27, 28, 29, 30, 31, 32, 33, 34, 35, 36, 37, 38, 39, 40, 41, 42, 43, 44, 45, 46, 47, 48, 49, 50, 51, 52, 53, 54, 55, 56, 57, 58, 59, 60, 61, 62, 63, 64, 65, 66, 67, 68, 69, 70, 71, 72, 73, 74, 75, 76, 77, 78, 79, 80, 81, 82, 83, 84, 85, 86, 87, 88, 89, 90, 91, 92, 93, 94, 95, 96, 97, 98, 99, 100, 101, 102, 103, 104, 105, 106, 107, 108, 109, 110, 111, 112, 113, 114, 115, 116, 117, 118, 119, 120, 121, 122, 123, 124, 125, 126, 127, 128, 129, 130, 131, 132, 133, 134, 135, 136, 137, 138, 139, 140, 141, 142, 143, 144, 145, 146, 147, 148, 149, 150, 151, 152, 153, 154, 155],
      "LargestImagePixelValue": [774, 749, 709, 725, 742, 749, 716, 738, 769, 722, 719, 734, 782, 721, 722, 751, 805, 709, 729, 743, 749, 718, 755, 784, 727, 755, 769, 732, 725, 792, 722, 737, 801, 719, 745, 817, 715, 747, 808, 721, 757, 777, 714, 754, 734, 713, 764, 761, 711, 760, 782, 747, 733, 752, 721, 740, 759, 741, 780, 727, 728, 774, 771, 714, 761, 760, 728, 716, 741, 764, 733, 715, 735, 798, 713, 724, 758, 755, 805, 723, 724, 727, 780, 724, 718, 771, 741, 716, 737, 790, 702, 718, 751, 751, 716, 741, 807, 711, 719, 779, 793, 718, 746, 803, 712, 723, 804, 721, 716, 769, 726, 727, 782, 727, 728, 794, 745, 728, 786, 812, 723, 755, 799, 728, 726, 774, 765, 724, 717, 808, 714, 717, 816, 713, 732, 817, 716, 729, 783, 730, 725, 752, 773, 711, 723, 755, 802, 701, 739, 717, 737, 795, 750, 721, 771],
      "WindowCenter": [430.0, 428.0, 427.0, 427.0, 427.0, 427.0, 427.0, 427.0, 427.0, 426.0, 426.0, 425.0, 426.0, 426.0, 426.0, 427.0, 426.0, 426.0, 427.0, 427.0, 427.0, 426.0, 427.0, 427.0, 427.0, 427.0, 426.0, 426.0, 426.0, 427.0, 426.0, 426.0, 427.0, 427.0, 427.0, 428.0, 427.0, 427.0, 428.0, 428.0, 428.0, 428.0, 428.0, 428.0, 427.0, 427.0, 427.0, 427.0, 427.0, 428.0, 427.0, 427.0, 428.0, 427.0, 427.0, 427.0, 427.0, 427.0, 428.0, 426.0, 425.0, 426.0, 426.0, 427.0, 427.0, 427.0, 427.0, 427.0, 428.0, 428.0, 428.0, 427.0, 427.0, 427.0, 427.0, 426.0, 427.0, 427.0, 432.0, 428.0, 426.0, 426.0, 426.0, 426.0, 426.0, 426.0, 426.0, 425.0, 426.0, 426.0, 425.0, 425.0, 426.0, 426.0, 425.0, 425.0, 425.0, 424.0, 424.0, 426.0, 426.0, 425.0, 426.0, 426.0, 425.0, 425.0, 426.0, 425.0, 425.0, 426.0, 426.0, 426.0, 427.0, 426.0, 427.0, 428.0, 427.0, 426.0, 427.0, 427.0, 427.0, 428.0, 427.0, 427.0, 426.0, 427.0, 427.0, 426.0, 426.0, 426.0, 426.0, 426.0, 427.0, 427.0, 427.0, 428.0, 427.0, 426.0, 427.0, 427.0, 427.0, 428.0, 427.0, 427.0, 427.0, 428.0, 428.0, 428.0, 428.0, 429.0, 429.0, 429.0, 428.0, 427.0, 429.0],
      "WindowWidth": [901.0, 897.0, 896.0, 896.0, 896.0, 895.0, 895.0, 895.0, 895.0, 894.0, 893.0, 892.0, 894.0, 893.0, 894.0, 894.0, 894.0, 894.0, 895.0, 895.0, 895.0, 894.0, 896.0, 896.0, 895.0, 895.0, 895.0, 894.0, 894.0, 895.0, 894.0, 894.0, 895.0, 895.0, 896.0, 898.0, 895.0, 896.0, 897.0, 897.0, 898.0, 897.0, 897.0, 898.0, 895.0, 895.0, 896.0, 896.0, 895.0, 896.0, 895.0, 895.0, 896.0, 896.0, 895.0, 895.0, 896.0, 895.0, 897.0, 894.0, 893.0, 894.0, 894.0, 895.0, 895.0, 895.0, 895.0, 896.0, 897.0, 897.0, 897.0, 895.0, 896.0, 896.0, 895.0, 894.0, 895.0, 895.0, 906.0, 898.0, 894.0, 894.0, 894.0, 893.0, 894.0, 895.0, 893.0, 893.0, 893.0, 894.0, 892.0, 892.0, 894.0, 894.0, 893.0, 892.0, 892.0, 891.0, 891.0, 894.0, 894.0, 893.0, 893.0, 893.0, 892.0, 892.0, 894.0, 892.0, 893.0, 893.0, 893.0, 894.0, 895.0, 894.0, 895.0, 897.0, 895.0, 894.0, 894.0, 896.0, 896.0, 897.0, 896.0, 895.0, 895.0, 896.0, 895.0, 894.0, 893.0, 894.0, 894.0, 894.0, 896.0, 895.0, 895.0, 896.0, 895.0, 895.0, 896.0, 896.0, 896.0, 896.0, 896.0, 896.0, 896.0, 896.0, 897.0, 897.0, 898.0, 899.0, 899.0, 899.0, 898.0, 896.0, 898.0]
    },
    "slices": {}
  }
}