{
  "AcquisitionMatrixPE": 64,
  "AcquisitionNumber": 1,
  "AcquisitionTime": "16:29:56.152500",
  "BandwidthPerPixelPhaseEncode": 40.064,
  "BaseResolution": 64,
  "BodyPartExamined": "BRAIN",
  "ConsistencyInfo": "N4_VD13D_LATEST_20130810",
  "ConversionSoftware": "dcm2niix",
  "ConversionSoftwareVersion": "v1.0.20191031",
  "DerivedVendorReportedEchoSpacing": 0.000780002,
  "DeviceSerialNumber": "67007",
  "DwellTime": 5.3e-06,
  "EchoTime": 0.03,
  "EchoTrainLength": 31,
  "EffectiveEchoSpacing": 0.000390001,
  "FlipAngle": 75,
  "ImageOrientationPatientDICOM": [0.999024, 0.0394212, -0.0199171, -0.040125, 0.998536, -0.0362639],
  "ImageType": [
    "ORIGINAL",
    "PRIMARY",
    "M",
    "ND",
    "NORM",
    "MOSAIC"
],
  "ImagingFrequency": 123.211,
  "InPlanePhaseEncodingDirectionDICOM": "ROW",
  "InstitutionAddress": "Perth_Drive_100_London_Ontario_CA_N6A_5K8",
  "InstitutionName": "Robarts_Research_Institute",
  "InstitutionalDepartmentName": "CFMM",
  "MRAcquisitionType": "2D",
  "MagneticFieldStrength": 3,
  "Manufacturer": "Siemens",
  "ManufacturersModelName": "Prisma_fit",
  "Modality": "MR",
  "ParallelReductionFactorInPlane": 2,
  "PartialFourier": 1,
  "PatientPosition": "HFS",
  "PercentPhaseFOV": 100,
  "PhaseEncodingDirection": "i",
  "PhaseEncodingSteps": 63,
  "PhaseResolution": 1,
  "PixelBandwidth": 1475,
  "ProcedureStepDescription": "Owen_Naci",
  "ProtocolName": "taken",
  "PulseSequenceDetails": "%SiemensSeq%_ep2d_bold",
  "ReceiveCoilActiveElements": "HEA;HEP",
  "ReceiveCoilName": "Head_32",
  "ReconMatrixPE": 64,
  "RefLinesPE": 24,
  "RepetitionTime": 2,
  "SAR": 0.120539,
  "ScanOptions": "FS",
  "ScanningSequence": "EP",
  "SequenceName": "_epfid2d1_64",
  "SequenceVariant": "SK",
  "SeriesDescription": "taken",
  "SeriesNumber": 9,
  "ShimSetting": [5260, -6160, -3806, 371, 32, 31, 170, -24],
  "SliceThickness": 3,
  "SliceTiming": [1.92, 1.86, 1.8, 1.74, 1.68, 1.62, 1.56, 1.5, 1.44, 1.38, 1.32, 1.26, 1.2, 1.14, 1.08, 1.02, 0.96, 0.9, 0.84, 0.78, 0.72, 0.66, 0.6, 0.54, 0.48, 0.42, 0.36, 0.3, 0.24, 0.18, 0.12, 0.06, 0],
  "SoftwareVersions": "syngo_MR_D13D",
  "SpacingBetweenSlices": 3.75,
  "StationName": "AWP67007",
  "TaskName": "audio",
  "TotalReadoutTime": 0.0245701,
  "TxRefAmp": 315.206,
  "dcmmeta_affine": [
    [-2.997072458267212, -0.12037487328052521, -0.06921909004449844, 101.59880828857422],
    [-0.11826367676258087, 2.9956092834472656, -0.1388537585735321, -70.7599868774414],
    [-0.05975142493844032, 0.10879164189100266, 3.7467892169952393, -16.97481346130371],
    [0.0, 0.0, 0.0, 1.0]
],
  "dcmmeta_reorient_transform": [
    [0.0, -1.0, 0.0, 63.0],
    [1.0, 0.0, 0.0, 0.0],
    [0.0, 0.0, 1.0, 0.0],
    [0.0, 0.0, 0.0, 1.0]
],
  "dcmmeta_shape": [64, 64, 33, 155],
  "dcmmeta_slice_dim": 2,
  "dcmmeta_version": 0.6,
  "global": {
    "const": {
      "AcquisitionMatrix": [0, 64, 64, 0],
      "AngioFlag": "N",
      "BitsAllocated": 16,
      "BitsStored": 12,
      "BodyPartExamined": "BRAIN",
      "Columns": 384,
      "EchoNumbers": 1,
      "EchoTime": 30.0,
      "EchoTrainLength": 31,
      "FlipAngle": 75.0,
      "HighBit": 11,
      "ImageOrientationPatient": [0.999024161068, 0.03942122603311, -0.019917141874, -0.0401249570133, 0.99853638831998, -0.0362638804538],
      "ImagePositionPatient": [-554.28681168223, -616.18304768989, 16.845951348273],
      "ImageType": [
        "ORIGINAL",
        "PRIMARY",
        "M",
        "ND",
        "NORM",
        "MOSAIC"
],
      "ImagedNucleus": "1H",
      "ImagingFrequency": 123.211114,
      "InPlanePhaseEncodingDirection": "ROW",
      "MRAcquisitionType": "2D",
      "MagneticFieldStrength": 3.0,
      "Manufacturer": "SIEMENS",
      "ManufacturerModelName": "Prisma_fit",
      "Modality": "MR",
      "NumberOfAverages": 1.0,
      "NumberOfPhaseEncodingSteps": 63,
      "PercentPhaseFieldOfView": 100.0,
      "PercentSampling": 100.0,
      "PerformedProcedureStepStartTime": "153823.205000",
      "PhotometricInterpretation": "MONOCHROME2",
      "PixelBandwidth": 1475.0,
      "PixelRepresentation": 0,
      "PixelSpacing": [3.0, 3.0],
      "ProtocolName": "taken",
      "RepetitionTime": 2000.0,
      "Rows": 384,
      "SAR": 0.12053936796567,
      "SamplesPerPixel": 1,
      "ScanOptions": "FS",
      "ScanningSequence": "EP",
      "SequenceName": "*epfid2d1_64",
      "SequenceVariant": "SK",
      "SeriesDescription": "taken",
      "SeriesNumber": 9,
      "SeriesTime": "163053.299000",
      "SliceLocation": -16.215554928003,
      "SliceThickness": 3.0,
      "SmallestImagePixelValue": 0,
      "SoftwareVersions": "syngo MR D13D",
      "SpacingBetweenSlices": 3.7500000542024,
      "SpecificCharacterSet": "ISO_IR 100",
      "StudyID": "1",
      "StudyTime": "153823.146000",
      "TimeOfLastCalibration": ["123723.000000", "123723.000000"],
      "TransmitCoilName": "Body",
      "VariableFlipAngleFlag": "N",
      "WindowCenterWidthExplanation": "Algo1",
      "dBdt": 0.0},
    "slices": {}
  },
  "time": {
    "samples": {
      "AcquisitionNumber": [1, 2, 3, 4, 5, 6, 7, 8, 9, 10, 11, 12, 13, 14, 15, 16, 17, 18, 19, 20, 21, 22, 23, 24, 25, 26, 27, 28, 29, 30, 31, 32, 33, 34, 35, 36, 37, 38, 39, 40, 41, 42, 43, 44, 45, 46, 47, 48, 49, 50, 51, 52, 53, 54, 55, 56, 57, 58, 59, 60, 61, 62, 63, 64, 65, 66, 67, 68, 69, 70, 71, 72, 73, 74, 75, 76, 77, 78, 79, 80, 81, 82, 83, 84, 85, 86, 87, 88, 89, 90, 91, 92, 93, 94, 95, 96, 97, 98, 99, 100, 101, 102, 103, 104, 105, 106, 107, 108, 109, 110, 111, 112, 113, 114, 115, 116, 117, 118, 119, 120, 121, 122, 123, 124, 125, 126, 127, 128, 129, 130, 131, 132, 133, 134, 135, 136, 137, 138, 139, 140, 141, 142, 143, 144, 145, 146, 147, 148, 149, 150, 151, 152, 153, 154, 155],
      "AcquisitionTime": ["162956.152500", "162958.152500", "163000.152500", "163002.152500", "163004.152500", "163006.152500", "163008.152500", "163010.152500", "163012.152500", "163014.152500", "163016.152500", "163018.152500", "163020.152500", "163022.152500", "163024.152500", "163026.152500", "163028.152500", "163030.152500", "163032.152500", "163034.152500", "163036.152500", "163038.152500", "163040.152500", "163042.152500", "163044.152500", "163046.152500", "163048.152500", "163050.152500", "163052.152500", "163054.152500", "163056.152500", "163058.152500", "163100.152500", "163102.152500", "163104.152500", "163106.152500", "163108.152500", "163110.152500", "163112.152500", "163114.152500", "163116.152500", "163118.152500", "163120.152500", "163122.152500", "163124.152500", "163126.152500", "163128.152500", "163130.152500", "163132.152500", "163134.152500", "163136.152500", "163138.152500", "163140.152500", "163142.152500", "163144.152500", "163146.152500", "163148.152500", "163150.152500", "163152.152500", "163154.152500", "163156.152500", "163158.152500", "163200.152500", "163202.152500", "163204.152500", "163206.152500", "163208.152500", "163210.152500", "163212.152500", "163214.152500", "163216.152500", "163218.152500", "163220.152500", "163222.152500", "163224.152500", "163226.152500", "163228.152500", "163230.152500", "163232.152500", "163234.152500", "163236.152500", "163238.152500", "163240.152500", "163242.152500", "163244.152500", "163246.152500", "163248.152500", "163250.152500", "163252.152500", "163254.152500", "163256.152500", "163258.152500", "163300.152500", "163302.152500", "163304.152500", "163306.152500", "163308.152500", "163310.152500", "163312.152500", "163314.152500", "163316.152500", "163318.152500", "163320.152500", "163322.152500", "163324.152500", "163326.152500", "163328.152500", "163330.152500", "163332.152500", "163334.152500", "163336.152500", "163338.152500", "163340.152500", "163342.152500", "163344.152500", "163346.152500", "163348.152500", "163350.152500", "163352.152500", "163354.152500", "163356.152500", "163358.152500", "163400.152500", "163402.152500", "163404.152500", "163406.152500", "163408.152500", "163410.152500", "163412.152500", "163414.152500", "163416.152500", "163418.152500", "163420.152500", "163422.152500", "163424.152500", "163426.152500", "163428.152500", "163430.152500", "163432.152500", "163434.152500", "163436.152500", "163438.152500", "163440.152500", "163442.152500", "163444.152500", "163446.152500", "163448.152500", "163450.152500", "163452.152500", "163454.152500", "163456.152500", "163458.152500", "163500.152500", "163502.152500", "163504.152500"],
      "ContentTime": ["163053.304000", "163053.308000", "163053.311000", "163053.314000", "163053.317000", "163053.320000", "163053.322000", "163053.325000", "163053.328000", "163053.331000", "163053.333000", "163053.336000", "163053.339000", "163053.342000", "163053.345000", "163053.348000", "163053.350000", "163053.353000", "163053.362000", "163053.365000", "163053.368000", "163053.370000", "163053.373000", "163053.376000", "163053.379000", "163053.381000", "163053.384000", "163053.387000", "163053.390000", "163133.298000", "163133.302000", "163133.305000", "163133.308000", "163133.311000", "163133.313000", "163133.326000", "163133.329000", "163133.332000", "163133.335000", "163133.338000", "163133.341000", "163133.343000", "163133.346000", "163133.349000", "163133.352000", "163133.355000", "163133.358000", "163133.361000", "163133.363000", "163213.296000", "163213.299000", "163213.302000", "163213.305000", "163213.308000", "163213.310000", "163213.313000", "163213.316000", "163213.319000", "163213.322000", "163213.325000", "163213.328000", "163213.331000", "163213.333000", "163213.336000", "163213.339000", "163213.342000", "163213.345000", "163213.348000", "163213.351000", "163253.296000", "163253.299000", "163253.302000", "163253.305000", "163253.307000", "163253.310000", "163253.313000", "163253.316000", "163253.318000", "163253.321000", "163253.324000", "163253.327000", "163253.330000", "163253.333000", "163253.339000", "163253.341000", "163253.344000", "163253.347000", "163253.350000", "163253.353000", "163333.297000", "163333.300000", "163333.303000", "163333.306000", "163333.309000", "163333.312000", "163333.315000", "163333.318000", "163333.321000", "163333.323000", "163333.326000", "163333.329000", "163333.332000", "163333.335000", "163333.338000", "163333.341000", "163333.344000", "163333.347000", "163333.349000", "163333.360000", "163413.297000", "163413.301000", "163413.304000", "163413.306000", "163413.309000", "163413.312000", "163413.315000", "163413.318000", "163413.321000", "163413.324000", "163413.326000", "163413.329000", "163413.332000", "163413.335000", "163413.338000", "163413.341000", "163413.344000", "163413.346000", "163413.349000", "163413.352000", "163453.296000", "163453.299000", "163453.302000", "163453.305000", "163453.308000", "163453.311000", "163453.314000", "163453.317000", "163453.319000", "163453.322000", "163453.325000", "163453.328000", "163453.330000", "163453.333000", "163453.336000", "163453.339000", "163453.341000", "163453.344000", "163453.347000", "163453.350000", "163504.909000", "163504.912000", "163504.916000", "163504.919000", "163504.922000", "163504.925000"],
      "InstanceCreationTime": ["163053.304000", "163053.308000", "163053.311000", "163053.314000", "163053.317000", "163053.320000", "163053.322000", "163053.325000", "163053.328000", "163053.331000", "163053.333000", "163053.336000", "163053.339000", "163053.342000", "163053.345000", "163053.348000", "163053.350000", "163053.353000", "163053.362000", "163053.365000", "163053.368000", "163053.370000", "163053.373000", "163053.376000", "163053.379000", "163053.381000", "163053.384000", "163053.387000", "163053.390000", "163133.298000", "163133.302000", "163133.305000", "163133.308000", "163133.311000", "163133.313000", "163133.326000", "163133.329000", "163133.332000", "163133.335000", "163133.338000", "163133.341000", "163133.343000", "163133.346000", "163133.349000", "163133.352000", "163133.355000", "163133.358000", "163133.361000", "163133.363000", "163213.296000", "163213.299000", "163213.302000", "163213.305000", "163213.308000", "163213.310000", "163213.313000", "163213.316000", "163213.319000", "163213.322000", "163213.325000", "163213.328000", "163213.331000", "163213.333000", "163213.336000", "163213.339000", "163213.342000", "163213.345000", "163213.348000", "163213.351000", "163253.296000", "163253.299000", "163253.302000", "163253.305000", "163253.307000", "163253.310000", "163253.313000", "163253.316000", "163253.318000", "163253.321000", "163253.324000", "163253.327000", "163253.330000", "163253.333000", "163253.339000", "163253.341000", "163253.344000", "163253.347000", "163253.350000", "163253.353000", "163333.297000", "163333.300000", "163333.303000", "163333.306000", "163333.309000", "163333.312000", "163333.315000", "163333.318000", "163333.321000", "163333.323000", "163333.326000", "163333.329000", "163333.332000", "163333.335000", "163333.338000", "163333.341000", "163333.344000", "163333.347000", "163333.349000", "163333.360000", "163413.297000", "163413.301000", "163413.304000", "163413.306000", "163413.309000", "163413.312000", "163413.315000", "163413.318000", "163413.321000", "163413.324000", "163413.326000", "163413.329000", "163413.332000", "163413.335000", "163413.338000", "163413.341000", "163413.344000", "163413.346000", "163413.349000", "163413.352000", "163453.296000", "163453.299000", "163453.302000", "163453.305000", "163453.308000", "163453.311000", "163453.314000", "163453.317000", "163453.319000", "163453.322000", "163453.325000", "163453.328000", "163453.330000", "163453.333000", "163453.336000", "163453.339000", "163453.341000", "163453.344000", "163453.347000", "163453.350000", "163504.909000", "163504.912000", "163504.916000", "163504.919000", "163504.922000", "163504.925000"],
      "InstanceNumber": [1, 2, 3, 4, 5, 6, 7, 8, 9, 10, 11, 12, 13, 14, 15, 16, 17, 18, 19, 20, 21, 22, 23, 24, 25, 26, 27, 28, 29, 30, 31, 32, 33, 34, 35, 36, 37, 38, 39, 40, 41, 42, 43, 44, 45, 46, 47, 48, 49, 50, 51, 52, 53, 54, 55, 56, 57, 58, 59, 60, 61, 62, 63, 64, 65, 66, 67, 68, 69, 70, 71, 72, 73, 74, 75, 76, 77, 78, 79, 80, 81, 82, 83, 84, 85, 86, 87, 88, 89, 90, 91, 92, 93, 94, 95, 96, 97, 98, 99, 100, 101, 102, 103, 104, 105, 106, 107, 108, 109, 110, 111, 112, 113, 114, 115, 116, 117, 118, 119, 120, 121, 122, 123, 124, 125, 126, 127, 128, 129, 130, 131, 132, 133, 134, 135, 136, 137, 138, 139, 140, 141, 142, 143, 144, 145, 146, 147, 148, 149, 150, 151, 152, 153, 154, 155],
      "LargestImagePixelValue": [899, 1532, 861, 1466, 919, 1164, 1256, 873, 1300, 1047, 1175, 865, 1205, 912, 1331, 920, 1513, 870, 947, 1224, 1088, 1164, 1086, 866, 1428, 880, 998, 1163, 887, 1247, 1154, 863, 1090, 1145, 1044, 1115, 1091, 904, 1332, 932, 1394, 865, 880, 1199, 910, 1386, 882, 1317, 881, 868, 1318, 949, 1445, 842, 1115, 1049, 936, 1005, 1318, 946, 1352, 856, 910, 1176, 895, 1419, 882, 930, 1336, 873, 1072, 1198, 1194, 924, 1153, 1260, 905, 1316, 1186, 899, 864, 1092, 1061, 893, 1200, 1395, 1112, 868, 1007, 1358, 969, 866, 1488, 867, 862, 1307, 896, 1138, 926, 1466, 877, 891, 1026, 1482, 891, 850, 1418, 881, 975, 1040, 901, 1476, 879, 1044, 1469, 864, 871, 1059, 1065, 888, 1309, 930, 900, 1317, 846, 1478, 853, 886, 1255, 916, 1374, 852, 1049, 862, 1481, 872, 970, 1322, 847, 1189, 1153, 996, 904, 959, 929, 896, 1429, 905, 981, 907, 1365, 884, 1122, 881, 912],
      "WindowCenter": [464.0, 469.0, 460.0, 465.0, 461.0, 463.0, 464.0, 460.0, 464.0, 461.0, 462.0, 459.0, 463.0, 460.0, 464.0, 460.0, 465.0, 461.0, 461.0, 463.0, 463.0, 462.0, 461.0, 460.0, 464.0, 460.0, 461.0, 464.0, 461.0, 465.0, 464.0, 461.0, 463.0, 464.0, 464.0, 464.0, 464.0, 462.0, 466.0, 462.0, 466.0, 462.0, 462.0, 466.0, 463.0, 467.0, 462.0, 466.0, 462.0, 462.0, 466.0, 463.0, 466.0, 460.0, 463.0, 462.0, 462.0, 462.0, 465.0, 462.0, 465.0, 461.0, 462.0, 464.0, 462.0, 466.0, 461.0, 462.0, 466.0, 461.0, 464.0, 464.0, 465.0, 462.0, 464.0, 465.0, 462.0, 465.0, 463.0, 461.0, 460.0, 463.0, 464.0, 462.0, 465.0, 465.0, 463.0, 460.0, 462.0, 466.0, 462.0, 461.0, 466.0, 461.0, 461.0, 464.0, 461.0, 465.0, 462.0, 466.0, 461.0, 464.0, 464.0, 466.0, 461.0, 461.0, 466.0, 461.0, 462.0, 462.0, 461.0, 466.0, 461.0, 462.0, 464.0, 459.0, 460.0, 462.0, 462.0, 460.0, 464.0, 461.0, 461.0, 465.0, 461.0, 465.0, 460.0, 460.0, 464.0, 460.0, 464.0, 459.0, 463.0, 461.0, 466.0, 460.0, 460.0, 463.0, 459.0, 462.0, 462.0, 461.0, 460.0, 460.0, 460.0, 460.0, 465.0, 460.0, 460.0, 459.0, 463.0, 459.0, 461.0, 459.0, 468.0],
      "WindowWidth": [972.0, 978.0, 965.0, 972.0, 965.0, 969.0, 969.0, 963.0, 969.0, 965.0, 967.0, 961.0, 968.0, 964.0, 970.0, 964.0, 971.0, 965.0, 965.0, 968.0, 967.0, 967.0, 965.0, 964.0, 970.0, 964.0, 966.0, 969.0, 966.0, 972.0, 970.0, 965.0, 969.0, 970.0, 970.0, 970.0, 970.0, 967.0, 974.0, 968.0, 973.0, 967.0, 968.0, 973.0, 970.0, 975.0, 967.0, 974.0, 967.0, 967.0, 974.0, 968.0, 973.0, 964.0, 969.0, 967.0, 967.0, 967.0, 972.0, 966.0, 971.0, 965.0, 967.0, 971.0, 967.0, 973.0, 966.0, 967.0, 973.0, 966.0, 970.0, 971.0, 971.0, 966.0, 971.0, 972.0, 967.0, 971.0, 968.0, 965.0, 964.0, 969.0, 970.0, 967.0, 971.0, 972.0, 969.0, 964.0, 968.0, 972.0, 967.0, 966.0, 973.0, 965.0, 965.0, 971.0, 966.0, 971.0, 967.0, 973.0, 965.0, 972.0, 971.0, 973.0, 965.0, 965.0, 972.0, 966.0, 966.0, 967.0, 966.0, 974.0, 966.0, 967.0, 970.0, 962.0, 963.0, 966.0, 967.0, 964.0, 970.0, 965.0, 966.0, 971.0, 965.0, 971.0, 963.0, 964.0, 969.0, 964.0, 969.0, 962.0, 968.0, 965.0, 973.0, 963.0, 963.0, 968.0, 961.0, 966.0, 965.0, 965.0, 963.0, 963.0, 963.0, 963.0, 971.0, 963.0, 963.0, 962.0, 968.0, 962.0, 964.0, 961.0, 980.0]
    },
    "slices": {}
  }
}