{
  "AcquisitionMatrixPE": 64,
  "AcquisitionNumber": 1,
  "AcquisitionTime": "15:56:22.327500",
  "BandwidthPerPixelPhaseEncode": 40.064,
  "BaseResolution": 64,
  "BodyPartExamined": "BRAIN",
  "ConsistencyInfo": "N4_VD13D_LATEST_20130810",
  "ConversionSoftware": "dcm2niix",
  "ConversionSoftwareVersion": "v1.0.20191031",
  "DerivedVendorReportedEchoSpacing": 0.000780002,
  "DeviceSerialNumber": "67007",
  "DwellTime": 5.3e-06,
  "EchoTime": 0.03,
  "EchoTrainLength": 31,
  "EffectiveEchoSpacing": 0.000390001,
  "FlipAngle": 75,
  "ImageOrientationPatientDICOM": [0.999024, 0.0394212, -0.0199171, -0.040125, 0.998536, -0.0362639],
  "ImageType": [
    "ORIGINAL",
    "PRIMARY",
    "M",
    "ND",
    "NORM",
    "MOSAIC"
],
  "ImagingFrequency": 123.211,
  "InPlanePhaseEncodingDirectionDICOM": "ROW",
  "InstitutionAddress": "Perth_Drive_100_London_Ontario_CA_N6A_5K8",
  "InstitutionName": "Robarts_Research_Institute",
  "InstitutionalDepartmentName": "CFMM",
  "MRAcquisitionType": "2D",
  "MagneticFieldStrength": 3,
  "Manufacturer": "Siemens",
  "ManufacturersModelName": "Prisma_fit",
  "Modality": "MR",
  "ParallelReductionFactorInPlane": 2,
  "PartialFourier": 1,
  "PatientPosition": "HFS",
  "PercentPhaseFOV": 100,
  "PhaseEncodingDirection": "i",
  "PhaseEncodingSteps": 63,
  "PhaseResolution": 1,
  "PixelBandwidth": 1475,
  "ProcedureStepDescription": "Owen_Naci",
  "ProtocolName": "Resting_State",
  "PulseSequenceDetails": "%SiemensSeq%_ep2d_bold",
  "ReceiveCoilActiveElements": "HEA;HEP",
  "ReceiveCoilName": "Head_32",
  "ReconMatrixPE": 64,
  "RefLinesPE": 24,
  "RepetitionTime": 2,
  "SAR": 0.120763,
  "ScanOptions": "FS",
  "ScanningSequence": "EP",
  "SequenceName": "_epfid2d1_64",
  "SequenceVariant": "SK",
  "SeriesDescription": "Resting_State",
  "SeriesNumber": 5,
  "ShimSetting": [5260, -6160, -3806, 371, 32, 31, 170, -24],
  "SliceThickness": 3,
  "SliceTiming": [1.92, 1.86, 1.8, 1.74, 1.68, 1.62, 1.56, 1.5, 1.44, 1.38, 1.32, 1.26, 1.2, 1.14, 1.08, 1.02, 0.96, 0.9, 0.84, 0.78, 0.72, 0.66, 0.6, 0.54, 0.48, 0.42, 0.36, 0.3, 0.24, 0.18, 0.12, 0.06, 0],
  "SoftwareVersions": "syngo_MR_D13D",
  "SpacingBetweenSlices": 3.75,
  "StationName": "AWP67007",
  "TaskName": "rest",
  "TotalReadoutTime": 0.0245701,
  "TxRefAmp": 315.206,
  "dcmmeta_affine": [
    [-2.997072458267212, -0.12037487328052521, -0.06921909004449844, 101.59880828857422],
    [-0.11826367676258087, 2.9956092834472656, -0.1388537585735321, -70.7599868774414],
    [-0.05975142493844032, 0.10879164189100266, 3.7467892169952393, -16.97481346130371],
    [0.0, 0.0, 0.0, 1.0]
],
  "dcmmeta_reorient_transform": [
    [0.0, -1.0, 0.0, 63.0],
    [1.0, 0.0, 0.0, 0.0],
    [0.0, 0.0, 1.0, 0.0],
    [0.0, 0.0, 0.0, 1.0]
],
  "dcmmeta_shape": [64, 64, 33, 256],
  "dcmmeta_slice_dim": 2,
  "dcmmeta_version": 0.6,
  "global": {
    "const": {
      "AcquisitionMatrix": [0, 64, 64, 0],
      "AngioFlag": "N",
      "BitsAllocated": 16,
      "BitsStored": 12,
      "BodyPartExamined": "BRAIN",
      "Columns": 384,
      "EchoNumbers": 1,
      "EchoTime": 30.0,
      "EchoTrainLength": 31,
      "FlipAngle": 75.0,
      "HighBit": 11,
      "ImageOrientationPatient": [0.999024161068, 0.03942122603311, -0.019917141874, -0.0401249570133, 0.99853638831998, -0.0362638804538],
      "ImagePositionPatient": [-554.28681168223, -616.18304768989, 16.845951348273],
      "ImageType": [
        "ORIGINAL",
        "PRIMARY",
        "M",
        "ND",
        "NORM",
        "MOSAIC"
],
      "ImagedNucleus": "1H",
      "ImagingFrequency": 123.21112,
      "InPlanePhaseEncodingDirection": "ROW",
      "MRAcquisitionType": "2D",
      "MagneticFieldStrength": 3.0,
      "Manufacturer": "SIEMENS",
      "ManufacturerModelName": "Prisma_fit",
      "Modality": "MR",
      "NumberOfAverages": 1.0,
      "NumberOfPhaseEncodingSteps": 63,
      "PercentPhaseFieldOfView": 100.0,
      "PercentSampling": 100.0,
      "PerformedProcedureStepStartTime": "153823.205000",
      "PhotometricInterpretation": "MONOCHROME2",
      "PixelBandwidth": 1475.0,
      "PixelRepresentation": 0,
      "PixelSpacing": [3.0, 3.0],
      "ProtocolName": "Resting State",
      "RepetitionTime": 2000.0,
      "Rows": 384,
      "SAR": 0.12076333834613,
      "SamplesPerPixel": 1,
      "ScanOptions": "FS",
      "ScanningSequence": "EP",
      "SequenceName": "*epfid2d1_64",
      "SequenceVariant": "SK",
      "SeriesDescription": "Resting State",
      "SeriesNumber": 5,
      "SeriesTime": "155713.300000",
      "SliceLocation": -16.215554928003,
      "SliceThickness": 3.0,
      "SmallestImagePixelValue": 0,
      "SoftwareVersions": "syngo MR D13D",
      "SpacingBetweenSlices": 3.7500000542024,
      "SpecificCharacterSet": "ISO_IR 100",
      "StudyID": "1",
      "StudyTime": "153823.146000",
      "TimeOfLastCalibration": ["123723.000000", "123723.000000"],
      "TransmitCoilName": "Body",
      "VariableFlipAngleFlag": "N",
      "WindowCenterWidthExplanation": "Algo1",
      "dBdt": 0.0},
    "slices": {}
  },
  "time": {
    "samples": {
      "AcquisitionNumber": [1, 2, 3, 4, 5, 6, 7, 8, 9, 10, 11, 12, 13, 14, 15, 16, 17, 18, 19, 20, 21, 22, 23, 24, 25, 26, 27, 28, 29, 30, 31, 32, 33, 34, 35, 36, 37, 38, 39, 40, 41, 42, 43, 44, 45, 46, 47, 48, 49, 50, 51, 52, 53, 54, 55, 56, 57, 58, 59, 60, 61, 62, 63, 64, 65, 66, 67, 68, 69, 70, 71, 72, 73, 74, 75, 76, 77, 78, 79, 80, 81, 82, 83, 84, 85, 86, 87, 88, 89, 90, 91, 92, 93, 94, 95, 96, 97, 98, 99, 100, 101, 102, 103, 104, 105, 106, 107, 108, 109, 110, 111, 112, 113, 114, 115, 116, 117, 118, 119, 120, 121, 122, 123, 124, 125, 126, 127, 128, 129, 130, 131, 132, 133, 134, 135, 136, 137, 138, 139, 140, 141, 142, 143, 144, 145, 146, 147, 148, 149, 150, 151, 152, 153, 154, 155, 156, 157, 158, 159, 160, 161, 162, 163, 164, 165, 166, 167, 168, 169, 170, 171, 172, 173, 174, 175, 176, 177, 178, 179, 180, 181, 182, 183, 184, 185, 186, 187, 188, 189, 190, 191, 192, 193, 194, 195, 196, 197, 198, 199, 200, 201, 202, 203, 204, 205, 206, 207, 208, 209, 210, 211, 212, 213, 214, 215, 216, 217, 218, 219, 220, 221, 222, 223, 224, 225, 226, 227, 228, 229, 230, 231, 232, 233, 234, 235, 236, 237, 238, 239, 240, 241, 242, 243, 244, 245, 246, 247, 248, 249, 250, 251, 252, 253, 254, 255, 256],
      "AcquisitionTime": ["155622.327500", "155624.327500", "155626.327500", "155628.327500", "155630.327500", "155632.327500", "155634.327500", "155636.327500", "155638.327500", "155640.327500", "155642.327500", "155644.327500", "155646.327500", "155648.327500", "155650.327500", "155652.327500", "155654.327500", "155656.327500", "155658.327500", "155700.327500", "155702.327500", "155704.327500", "155706.327500", "155708.327500", "155710.327500", "155712.327500", "155714.327500", "155716.327500", "155718.327500", "155720.327500", "155722.327500", "155724.327500", "155726.327500", "155728.327500", "155730.330000", "155732.330000", "155734.330000", "155736.330000", "155738.330000", "155740.330000", "155742.330000", "155744.330000", "155746.330000", "155748.330000", "155750.330000", "155752.330000", "155754.330000", "155756.330000", "155758.330000", "155800.330000", "155802.330000", "155804.330000", "155806.330000", "155808.330000", "155810.330000", "155812.330000", "155814.330000", "155816.330000", "155818.330000", "155820.330000", "155822.330000", "155824.330000", "155826.330000", "155828.330000", "155830.330000", "155832.330000", "155834.330000", "155836.330000", "155838.330000", "155840.330000", "155842.330000", "155844.330000", "155846.330000", "155848.330000", "155850.330000", "155852.330000", "155854.330000", "155856.330000", "155858.330000", "155900.330000", "155902.330000", "155904.330000", "155906.330000", "155908.330000", "155910.330000", "155912.330000", "155914.330000", "155916.330000", "155918.330000", "155920.330000", "155922.330000", "155924.330000", "155926.330000", "155928.330000", "155930.330000", "155932.330000", "155934.330000", "155936.330000", "155938.330000", "155940.330000", "155942.330000", "155944.330000", "155946.330000", "155948.330000", "155950.330000", "155952.330000", "155954.330000", "155956.330000", "155958.330000", "160000.330000", "160002.330000", "160004.330000", "160006.330000", "160008.330000", "160010.330000", "160012.330000", "160014.330000", "160016.330000", "160018.330000", "160020.330000", "160022.330000", "160024.330000", "160026.330000", "160028.330000", "160030.330000", "160032.330000", "160034.330000", "160036.330000", "160038.330000", "160040.330000", "160042.330000", "160044.330000", "160046.330000", "160048.330000", "160050.330000", "160052.330000", "160054.330000", "160056.330000", "160058.330000", "160100.330000", "160102.330000", "160104.330000", "160106.330000", "160108.330000", "160110.330000", "160112.330000", "160114.330000", "160116.330000", "160118.330000", "160120.330000", "160122.330000", "160124.330000", "160126.330000", "160128.330000", "160130.330000", "160132.330000", "160134.330000", "160136.330000", "160138.330000", "160140.330000", "160142.330000", "160144.330000", "160146.330000", "160148.330000", "160150.330000", "160152.330000", "160154.330000", "160156.330000", "160158.330000", "160200.330000", "160202.330000", "160204.330000", "160206.330000", "160208.330000", "160210.330000", "160212.330000", "160214.330000", "160216.330000", "160218.330000", "160220.330000", "160222.330000", "160224.330000", "160226.330000", "160228.330000", "160230.330000", "160232.330000", "160234.330000", "160236.330000", "160238.330000", "160240.330000", "160242.330000", "160244.330000", "160246.330000", "160248.330000", "160250.330000", "160252.330000", "160254.330000", "160256.330000", "160258.330000", "160300.330000", "160302.330000", "160304.330000", "160306.330000", "160308.330000", "160310.330000", "160312.330000", "160314.330000", "160316.330000", "160318.330000", "160320.330000", "160322.330000", "160324.330000", "160326.330000", "160328.330000", "160330.330000", "160332.330000", "160334.330000", "160336.330000", "160338.330000", "160340.330000", "160342.330000", "160344.330000", "160346.330000", "160348.330000", "160350.330000", "160352.330000", "160354.330000", "160356.330000", "160358.330000", "160400.330000", "160402.330000", "160404.330000", "160406.330000", "160408.330000", "160410.330000", "160412.330000", "160414.330000", "160416.330000", "160418.330000", "160420.330000", "160422.330000", "160424.330000", "160426.330000", "160428.330000", "160430.330000", "160432.330000", "160434.330000", "160436.330000", "160438.330000", "160440.330000", "160442.330000", "160444.330000", "160446.330000", "160448.330000", "160450.330000", "160452.330000"],
      "ContentTime": ["155713.304000", "155713.308000", "155713.311000", "155713.314000", "155713.316000", "155713.319000", "155713.322000", "155713.324000", "155713.327000", "155713.330000", "155713.333000", "155713.336000", "155713.339000", "155713.341000", "155713.344000", "155713.347000", "155713.350000", "155713.353000", "155713.355000", "155713.358000", "155713.361000", "155713.364000", "155713.367000", "155713.370000", "155713.373000", "155713.376000", "155753.297000", "155753.301000", "155753.303000", "155753.306000", "155753.309000", "155753.312000", "155753.315000", "155753.318000", "155753.321000", "155753.323000", "155753.326000", "155753.329000", "155753.332000", "155753.335000", "155753.338000", "155753.341000", "155753.343000", "155753.346000", "155753.349000", "155753.352000", "155833.296000", "155833.300000", "155833.303000", "155833.306000", "155833.309000", "155833.312000", "155833.315000", "155833.318000", "155833.321000", "155833.324000", "155833.326000", "155833.329000", "155833.332000", "155833.335000", "155833.338000", "155833.340000", "155833.343000", "155833.346000", "155833.349000", "155833.352000", "155913.297000", "155913.301000", "155913.303000", "155913.306000", "155913.309000", "155913.312000", "155913.315000", "155913.318000", "155913.321000", "155913.323000", "155913.326000", "155913.329000", "155913.332000", "155913.335000", "155913.338000", "155913.340000", "155913.343000", "155913.346000", "155913.349000", "155913.352000", "155953.297000", "155953.300000", "155953.303000", "155953.306000", "155953.309000", "155953.317000", "155953.320000", "155953.323000", "155953.326000", "155953.329000", "155953.332000", "155953.335000", "155953.338000", "155953.341000", "155953.343000", "155953.346000", "155953.349000", "155953.352000", "155953.355000", "155953.358000", "160033.297000", "160033.301000", "160033.303000", "160033.306000", "160033.309000", "160033.312000", "160033.314000", "160033.317000", "160033.320000", "160033.323000", "160033.326000", "160033.329000", "160033.332000", "160033.335000", "160033.337000", "160033.340000", "160033.343000", "160033.346000", "160033.349000", "160033.352000", "160113.298000", "160113.301000", "160113.304000", "160113.307000", "160113.310000", "160113.313000", "160113.315000", "160113.318000", "160113.321000", "160113.324000", "160113.327000", "160113.330000", "160113.333000", "160113.336000", "160113.338000", "160113.341000", "160113.344000", "160113.347000", "160113.350000", "160113.353000", "160153.298000", "160153.302000", "160153.305000", "160153.307000", "160153.310000", "160153.313000", "160153.316000", "160153.319000", "160153.322000", "160153.325000", "160153.328000", "160153.331000", "160153.333000", "160153.336000", "160153.339000", "160153.342000", "160153.345000", "160153.348000", "160153.351000", "160153.353000", "160233.297000", "160233.301000", "160233.303000", "160233.306000", "160233.309000", "160233.312000", "160233.314000", "160233.317000", "160233.320000", "160233.323000", "160233.326000", "160233.329000", "160233.332000", "160233.335000", "160233.338000", "160233.341000", "160233.344000", "160233.346000", "160233.349000", "160233.352000", "160313.298000", "160313.302000", "160313.305000", "160313.308000", "160313.311000", "160313.314000", "160313.316000", "160313.319000", "160313.322000", "160313.325000", "160313.328000", "160313.331000", "160313.333000", "160313.336000", "160313.339000", "160313.342000", "160313.345000", "160313.348000", "160313.351000", "160313.354000", "160353.298000", "160353.302000", "160353.305000", "160353.307000", "160353.310000", "160353.313000", "160353.315000", "160353.318000", "160353.321000", "160353.324000", "160353.327000", "160353.330000", "160353.333000", "160353.336000", "160353.339000", "160353.341000", "160353.344000", "160353.347000", "160353.350000", "160353.353000", "160433.297000", "160433.300000", "160433.303000", "160433.306000", "160433.308000", "160433.311000", "160433.314000", "160433.317000", "160433.320000", "160433.323000", "160433.326000", "160433.329000", "160433.331000", "160433.334000", "160433.337000", "160433.340000", "160433.343000", "160433.346000", "160433.348000", "160433.351000", "160452.831000", "160452.834000", "160452.837000", "160452.840000", "160452.842000", "160452.845000", "160452.848000", "160452.851000", "160452.854000", "160452.857000"],
      "InstanceCreationTime": ["155713.304000", "155713.308000", "155713.311000", "155713.314000", "155713.316000", "155713.319000", "155713.322000", "155713.324000", "155713.327000", "155713.330000", "155713.333000", "155713.336000", "155713.339000", "155713.341000", "155713.344000", "155713.347000", "155713.350000", "155713.353000", "155713.355000", "155713.358000", "155713.361000", "155713.364000", "155713.367000", "155713.370000", "155713.373000", "155713.376000", "155753.297000", "155753.301000", "155753.303000", "155753.306000", "155753.309000", "155753.312000", "155753.315000", "155753.318000", "155753.321000", "155753.323000", "155753.326000", "155753.329000", "155753.332000", "155753.335000", "155753.338000", "155753.341000", "155753.343000", "155753.346000", "155753.349000", "155753.352000", "155833.296000", "155833.300000", "155833.303000", "155833.306000", "155833.309000", "155833.312000", "155833.315000", "155833.318000", "155833.321000", "155833.324000", "155833.326000", "155833.329000", "155833.332000", "155833.335000", "155833.338000", "155833.340000", "155833.343000", "155833.346000", "155833.349000", "155833.352000", "155913.297000", "155913.301000", "155913.303000", "155913.306000", "155913.309000", "155913.312000", "155913.315000", "155913.318000", "155913.321000", "155913.323000", "155913.326000", "155913.329000", "155913.332000", "155913.335000", "155913.338000", "155913.340000", "155913.343000", "155913.346000", "155913.349000", "155913.352000", "155953.297000", "155953.300000", "155953.303000", "155953.306000", "155953.309000", "155953.317000", "155953.320000", "155953.323000", "155953.326000", "155953.329000", "155953.332000", "155953.335000", "155953.338000", "155953.341000", "155953.343000", "155953.346000", "155953.349000", "155953.352000", "155953.355000", "155953.358000", "160033.297000", "160033.301000", "160033.303000", "160033.306000", "160033.309000", "160033.312000", "160033.314000", "160033.317000", "160033.320000", "160033.323000", "160033.326000", "160033.329000", "160033.332000", "160033.335000", "160033.337000", "160033.340000", "160033.343000", "160033.346000", "160033.349000", "160033.352000", "160113.298000", "160113.301000", "160113.304000", "160113.307000", "160113.310000", "160113.313000", "160113.315000", "160113.318000", "160113.321000", "160113.324000", "160113.327000", "160113.330000", "160113.333000", "160113.336000", "160113.338000", "160113.341000", "160113.344000", "160113.347000", "160113.350000", "160113.353000", "160153.298000", "160153.302000", "160153.305000", "160153.307000", "160153.310000", "160153.313000", "160153.316000", "160153.319000", "160153.322000", "160153.325000", "160153.328000", "160153.331000", "160153.333000", "160153.336000", "160153.339000", "160153.342000", "160153.345000", "160153.348000", "160153.351000", "160153.353000", "160233.297000", "160233.301000", "160233.303000", "160233.306000", "160233.309000", "160233.312000", "160233.314000", "160233.317000", "160233.320000", "160233.323000", "160233.326000", "160233.329000", "160233.332000", "160233.335000", "160233.338000", "160233.341000", "160233.344000", "160233.346000", "160233.349000", "160233.352000", "160313.298000", "160313.302000", "160313.305000", "160313.308000", "160313.311000", "160313.314000", "160313.316000", "160313.319000", "160313.322000", "160313.325000", "160313.328000", "160313.331000", "160313.333000", "160313.336000", "160313.339000", "160313.342000", "160313.345000", "160313.348000", "160313.351000", "160313.354000", "160353.298000", "160353.302000", "160353.305000", "160353.307000", "160353.310000", "160353.313000", "160353.315000", "160353.318000", "160353.321000", "160353.324000", "160353.327000", "160353.330000", "160353.333000", "160353.336000", "160353.339000", "160353.341000", "160353.344000", "160353.347000", "160353.350000", "160353.353000", "160433.297000", "160433.300000", "160433.303000", "160433.306000", "160433.308000", "160433.311000", "160433.314000", "160433.317000", "160433.320000", "160433.323000", "160433.326000", "160433.329000", "160433.331000", "160433.334000", "160433.337000", "160433.340000", "160433.343000", "160433.346000", "160433.348000", "160433.351000", "160452.831000", "160452.834000", "160452.837000", "160452.840000", "160452.842000", "160452.845000", "160452.848000", "160452.851000", "160452.854000", "160452.857000"],
      "InstanceNumber": [1, 2, 3, 4, 5, 6, 7, 8, 9, 10, 11, 12, 13, 14, 15, 16, 17, 18, 19, 20, 21, 22, 23, 24, 25, 26, 27, 28, 29, 30, 31, 32, 33, 34, 35, 36, 37, 38, 39, 40, 41, 42, 43, 44, 45, 46, 47, 48, 49, 50, 51, 52, 53, 54, 55, 56, 57, 58, 59, 60, 61, 62, 63, 64, 65, 66, 67, 68, 69, 70, 71, 72, 73, 74, 75, 76, 77, 78, 79, 80, 81, 82, 83, 84, 85, 86, 87, 88, 89, 90, 91, 92, 93, 94, 95, 96, 97, 98, 99, 100, 101, 102, 103, 104, 105, 106, 107, 108, 109, 110, 111, 112, 113, 114, 115, 116, 117, 118, 119, 120, 121, 122, 123, 124, 125, 126, 127, 128, 129, 130, 131, 132, 133, 134, 135, 136, 137, 138, 139, 140, 141, 142, 143, 144, 145, 146, 147, 148, 149, 150, 151, 152, 153, 154, 155, 156, 157, 158, 159, 160, 161, 162, 163, 164, 165, 166, 167, 168, 169, 170, 171, 172, 173, 174, 175, 176, 177, 178, 179, 180, 181, 182, 183, 184, 185, 186, 187, 188, 189, 190, 191, 192, 193, 194, 195, 196, 197, 198, 199, 200, 201, 202, 203, 204, 205, 206, 207, 208, 209, 210, 211, 212, 213, 214, 215, 216, 217, 218, 219, 220, 221, 222, 223, 224, 225, 226, 227, 228, 229, 230, 231, 232, 233, 234, 235, 236, 237, 238, 239, 240, 241, 242, 243, 244, 245, 246, 247, 248, 249, 250, 251, 252, 253, 254, 255, 256],
      "LargestImagePixelValue": [923, 932, 897, 967, 914, 830, 876, 879, 925, 892, 876, 1074, 882, 862, 855, 871, 986, 908, 918, 917, 959, 857, 972, 928, 934, 916, 900, 913, 953, 898, 879, 898, 939, 907, 901, 857, 909, 890, 888, 907, 869, 871, 895, 922, 914, 942, 874, 871, 883, 869, 924, 887, 865, 920, 908, 927, 903, 976, 974, 958, 911, 862, 1167, 924, 863, 949, 876, 942, 967, 894, 996, 857, 866, 883, 879, 862, 911, 855, 911, 879, 987, 859, 1111, 1136, 930, 1018, 840, 876, 873, 929, 959, 996, 859, 887, 996, 1015, 932, 916, 908, 1153, 860, 970, 1165, 861, 944, 962, 1100, 888, 989, 830, 877, 938, 1090, 867, 874, 864, 909, 927, 1201, 944, 894, 1070, 935, 1168, 875, 880, 886, 980, 902, 1014, 1073, 885, 903, 805, 823, 894, 1001, 826, 836, 863, 847, 905, 929, 1000, 990, 850, 962, 971, 1027, 935, 810, 943, 1146, 905, 828, 860, 887, 851, 869, 954, 994, 1142, 839, 914, 870, 993, 829, 905, 863, 912, 996, 982, 903, 834, 847, 844, 867, 855, 885, 910, 922, 910, 923, 1409, 1176, 856, 937, 871, 830, 846, 933, 823, 819, 1056, 839, 978, 922, 877, 876, 1107, 945, 1068, 1327, 918, 893, 1048, 881, 1033, 912, 924, 951, 884, 912, 834, 973, 1354, 1075, 1126, 918, 882, 982, 986, 896, 871, 895, 1118, 851, 1206, 870, 842, 846, 873, 821, 1192, 1163, 1162, 940, 1487, 902, 937, 836, 896, 871, 870, 839, 848, 857, 1026, 850, 1184, 924, 867, 863, 869, 948, 1001],
      "WindowCenter": [456.0, 455.0, 455.0, 456.0, 456.0, 455.0, 457.0, 457.0, 458.0, 457.0, 458.0, 461.0, 457.0, 456.0, 456.0, 458.0, 458.0, 458.0, 459.0, 458.0, 458.0, 458.0, 459.0, 458.0, 458.0, 458.0, 457.0, 457.0, 457.0, 457.0, 458.0, 458.0, 458.0, 458.0, 457.0, 458.0, 458.0, 458.0, 458.0, 458.0, 458.0, 458.0, 458.0, 459.0, 459.0, 458.0, 459.0, 458.0, 457.0, 458.0, 458.0, 459.0, 458.0, 457.0, 457.0, 457.0, 458.0, 460.0, 458.0, 456.0, 456.0, 456.0, 468.0, 458.0, 455.0, 457.0, 455.0, 458.0, 457.0, 455.0, 457.0, 456.0, 456.0, 457.0, 457.0, 457.0, 458.0, 458.0, 460.0, 459.0, 461.0, 459.0, 467.0, 463.0, 458.0, 459.0, 457.0, 458.0, 458.0, 459.0, 460.0, 462.0, 460.0, 461.0, 461.0, 462.0, 461.0, 461.0, 460.0, 463.0, 459.0, 461.0, 461.0, 457.0, 459.0, 458.0, 460.0, 457.0, 458.0, 456.0, 458.0, 458.0, 460.0, 458.0, 459.0, 458.0, 460.0, 461.0, 464.0, 461.0, 458.0, 461.0, 459.0, 461.0, 457.0, 456.0, 457.0, 459.0, 458.0, 458.0, 459.0, 456.0, 456.0, 455.0, 456.0, 458.0, 459.0, 457.0, 458.0, 458.0, 458.0, 459.0, 461.0, 462.0, 463.0, 461.0, 465.0, 463.0, 461.0, 459.0, 458.0, 459.0, 460.0, 457.0, 458.0, 460.0, 462.0, 461.0, 462.0, 462.0, 461.0, 462.0, 457.0, 458.0, 458.0, 459.0, 456.0, 459.0, 458.0, 457.0, 458.0, 458.0, 457.0, 456.0, 457.0, 457.0, 457.0, 458.0, 460.0, 460.0, 463.0, 459.0, 457.0, 465.0, 465.0, 456.0, 458.0, 457.0, 456.0, 457.0, 459.0, 459.0, 460.0, 463.0, 460.0, 465.0, 472.0, 464.0, 461.0, 464.0, 462.0, 462.0, 463.0, 458.0, 458.0, 459.0, 457.0, 459.0, 457.0, 458.0, 458.0, 463.0, 465.0, 458.0, 461.0, 466.0, 464.0, 458.0, 456.0, 456.0, 459.0, 463.0, 459.0, 458.0, 459.0, 460.0, 457.0, 459.0, 456.0, 457.0, 460.0, 459.0, 460.0, 463.0, 464.0, 458.0, 453.0, 462.0, 459.0, 455.0, 454.0, 455.0, 456.0, 458.0, 458.0, 457.0, 456.0, 458.0, 456.0, 459.0, 457.0, 456.0, 458.0, 459.0, 471.0, 464.0],
      "WindowWidth": [957.0, 954.0, 953.0, 955.0, 956.0, 954.0, 958.0, 958.0, 960.0, 957.0, 959.0, 965.0, 958.0, 957.0, 955.0, 959.0, 959.0, 960.0, 961.0, 960.0, 959.0, 960.0, 960.0, 960.0, 959.0, 959.0, 958.0, 957.0, 957.0, 958.0, 959.0, 960.0, 960.0, 959.0, 958.0, 959.0, 959.0, 960.0, 959.0, 960.0, 960.0, 960.0, 960.0, 961.0, 960.0, 960.0, 961.0, 959.0, 957.0, 959.0, 959.0, 962.0, 961.0, 958.0, 958.0, 957.0, 959.0, 965.0, 959.0, 955.0, 956.0, 956.0, 981.0, 959.0, 953.0, 957.0, 955.0, 959.0, 958.0, 955.0, 958.0, 956.0, 956.0, 958.0, 958.0, 958.0, 960.0, 960.0, 963.0, 962.0, 964.0, 962.0, 977.0, 968.0, 960.0, 961.0, 959.0, 959.0, 959.0, 961.0, 962.0, 966.0, 964.0, 965.0, 966.0, 966.0, 965.0, 966.0, 964.0, 967.0, 962.0, 965.0, 964.0, 959.0, 961.0, 960.0, 962.0, 958.0, 959.0, 956.0, 960.0, 960.0, 963.0, 960.0, 961.0, 961.0, 964.0, 965.0, 971.0, 964.0, 961.0, 965.0, 961.0, 964.0, 958.0, 957.0, 958.0, 962.0, 959.0, 959.0, 961.0, 956.0, 956.0, 955.0, 957.0, 960.0, 962.0, 958.0, 960.0, 961.0, 961.0, 962.0, 964.0, 967.0, 968.0, 965.0, 973.0, 968.0, 965.0, 961.0, 961.0, 961.0, 963.0, 958.0, 959.0, 964.0, 967.0, 965.0, 968.0, 967.0, 964.0, 966.0, 958.0, 960.0, 961.0, 960.0, 957.0, 961.0, 959.0, 958.0, 960.0, 959.0, 957.0, 956.0, 957.0, 957.0, 958.0, 960.0, 964.0, 964.0, 968.0, 961.0, 957.0, 974.0, 974.0, 956.0, 958.0, 958.0, 957.0, 959.0, 961.0, 962.0, 963.0, 968.0, 964.0, 972.0, 987.0, 970.0, 965.0, 970.0, 966.0, 966.0, 967.0, 959.0, 959.0, 961.0, 958.0, 960.0, 957.0, 960.0, 959.0, 969.0, 974.0, 959.0, 966.0, 975.0, 971.0, 958.0, 955.0, 955.0, 960.0, 970.0, 960.0, 959.0, 961.0, 963.0, 958.0, 961.0, 956.0, 958.0, 964.0, 963.0, 965.0, 970.0, 971.0, 958.0, 949.0, 967.0, 962.0, 953.0, 952.0, 954.0, 955.0, 960.0, 959.0, 957.0, 956.0, 959.0, 956.0, 960.0, 957.0, 956.0, 959.0, 961.0, 984.0, 970.0]
    },
    "slices": {}
  }
}