{
  "AcquisitionMatrixPE": 64,
  "AcquisitionNumber": 1,
  "AcquisitionTime": "17:53:11.582500",
  "BandwidthPerPixelPhaseEncode": 40.064,
  "BaseResolution": 64,
  "BodyPartExamined": "BRAIN",
  "ConsistencyInfo": "N4_VD13D_LATEST_20130810",
  "ConversionSoftware": "dcm2niix",
  "ConversionSoftwareVersion": "v1.0.20191031",
  "DerivedVendorReportedEchoSpacing": 0.000780002,
  "DeviceSerialNumber": "67007",
  "DwellTime": 5.3e-06,
  "EchoTime": 0.03,
  "EchoTrainLength": 31,
  "EffectiveEchoSpacing": 0.000390001,
  "FlipAngle": 75,
  "ImageOrientationPatientDICOM": [0.999601, 0.0201855, 0.01974, -0.0226841, 0.990467, 0.135869],
  "ImageType": [
    "ORIGINAL",
    "PRIMARY",
    "M",
    "ND",
    "NORM",
    "MOSAIC"
],
  "ImagingFrequency": 123.211,
  "InPlanePhaseEncodingDirectionDICOM": "ROW",
  "InstitutionAddress": "Perth_Drive_100_London_Ontario_CA_N6A_5K8",
  "InstitutionName": "Robarts-CFMM",
  "InstitutionalDepartmentName": "CFMM",
  "MRAcquisitionType": "2D",
  "MagneticFieldStrength": 3,
  "Manufacturer": "Siemens",
  "ManufacturersModelName": "Prisma_fit",
  "Modality": "MR",
  "ParallelReductionFactorInPlane": 2,
  "PartialFourier": 1,
  "PatientPosition": "HFS",
  "PercentPhaseFOV": 100,
  "PhaseEncodingDirection": "i",
  "PhaseEncodingSteps": 63,
  "PhaseResolution": 1,
  "PixelBandwidth": 1475,
  "ProcedureStepDescription": "Owen_Naci",
  "ProtocolName": "taken_deep_sed",
  "PulseSequenceDetails": "%SiemensSeq%_ep2d_bold",
  "ReceiveCoilActiveElements": "HEA;HEP",
  "ReceiveCoilName": "Head_32",
  "ReconMatrixPE": 64,
  "RefLinesPE": 24,
  "RepetitionTime": 2,
  "SAR": 0.0885226,
  "ScanOptions": "FS",
  "ScanningSequence": "EP",
  "SequenceName": "_epfid2d1_64",
  "SequenceVariant": "SK",
  "SeriesDescription": "taken_deep_sed",
  "SeriesNumber": 18,
  "ShimSetting": [5237, -6191, -3843, 344, -21, -75, 14, 13],
  "SliceThickness": 3,
  "SliceTiming": [1.92, 1.86, 1.8, 1.74, 1.68, 1.62, 1.56, 1.5, 1.44, 1.38, 1.32, 1.26, 1.2, 1.14, 1.08, 1.02, 0.96, 0.9, 0.84, 0.78, 0.72, 0.66, 0.6, 0.54, 0.48, 0.42, 0.36, 0.3, 0.24, 0.18, 0.12, 0.06, 0],
  "SoftwareVersions": "syngo_MR_D13D",
  "SpacingBetweenSlices": 3.75,
  "StationName": "AWP67007",
  "TaskName": "audiodeep",
  "TotalReadoutTime": 0.0245701,
  "TxRefAmp": 259.108,
  "dcmmeta_affine": [
    [-2.9988040924072266, -0.06805238127708435, 0.06303481012582779, 97.19085693359375],
    [-0.06055636331439018, 2.9714012145996094, 0.5109841227531433, -81.46173095703125],
    [0.05922010913491249, -0.40760642290115356, 3.7144882678985596, -28.151582717895508],
    [0.0, 0.0, 0.0, 1.0]
],
  "dcmmeta_reorient_transform": [
    [0.0, -1.0, 0.0, 63.0],
    [1.0, 0.0, 0.0, 0.0],
    [0.0, 0.0, 1.0, 0.0],
    [0.0, 0.0, 0.0, 1.0]
],
  "dcmmeta_shape": [64, 64, 33, 155],
  "dcmmeta_slice_dim": 2,
  "dcmmeta_version": 0.6,
  "global": {
    "const": {
      "AcquisitionMatrix": [0, 64, 64, 0],
      "AngioFlag": "N",
      "BitsAllocated": 16,
      "BitsStored": 12,
      "BodyPartExamined": "BRAIN",
      "Columns": 384,
      "EchoNumbers": 1,
      "EchoTime": 30.0,
      "EchoTrainLength": 31,
      "FlipAngle": 75.0,
      "HighBit": 11,
      "ImageOrientationPatient": [0.9996013597255, 0.02018545486823, 0.01974003664388, -0.0226841272627, 0.99046711033283, 0.13586881069354],
      "ImagePositionPatient": [-561.82382725091, -590.84978765865, -128.52303386543],
      "ImageType": [
        "ORIGINAL",
        "PRIMARY",
        "M",
        "ND",
        "NORM",
        "MOSAIC"
],
      "ImagedNucleus": "1H",
      "ImagingFrequency": 123.21111,
      "InPlanePhaseEncodingDirection": "ROW",
      "MRAcquisitionType": "2D",
      "MagneticFieldStrength": 3.0,
      "Manufacturer": "SIEMENS",
      "ManufacturerModelName": "Prisma_fit",
      "Modality": "MR",
      "NumberOfAverages": 1.0,
      "NumberOfPhaseEncodingSteps": 63,
      "PercentPhaseFieldOfView": 100.0,
      "PercentSampling": 100.0,
      "PerformedProcedureStepStartTime": "161631.696000",
      "PhotometricInterpretation": "MONOCHROME2",
      "PixelBandwidth": 1475.0,
      "PixelRepresentation": 0,
      "PixelSpacing": [3.0, 3.0],
      "ProtocolName": "taken_deep_sed",
      "RepetitionTime": 2000.0,
      "Rows": 384,
      "SAR": 0.08852258234937,
      "SamplesPerPixel": 1,
      "ScanOptions": "FS",
      "ScanningSequence": "EP",
      "SequenceName": "*epfid2d1_64",
      "SequenceVariant": "SK",
      "SeriesDescription": "taken_deep_sed",
      "SeriesNumber": 18,
      "SeriesTime": "175400.752000",
      "SliceLocation": -37.351455526441,
      "SliceThickness": 3.0,
      "SmallestImagePixelValue": 0,
      "SoftwareVersions": "syngo MR D13D",
      "SpacingBetweenSlices": 3.7500000531564,
      "SpecificCharacterSet": "ISO_IR 100",
      "StudyID": "1",
      "StudyTime": "161631.639000",
      "TimeOfLastCalibration": ["123723.000000", "123723.000000"],
      "TransmitCoilName": "Body",
      "VariableFlipAngleFlag": "N",
      "WindowCenterWidthExplanation": "Algo1",
      "dBdt": 0.0},
    "slices": {}
  },
  "time": {
    "samples": {
      "AcquisitionNumber": [1, 2, 3, 4, 5, 6, 7, 8, 9, 10, 11, 12, 13, 14, 15, 16, 17, 18, 19, 20, 21, 22, 23, 24, 25, 26, 27, 28, 29, 30, 31, 32, 33, 34, 35, 36, 37, 38, 39, 40, 41, 42, 43, 44, 45, 46, 47, 48, 49, 50, 51, 52, 53, 54, 55, 56, 57, 58, 59, 60, 61, 62, 63, 64, 65, 66, 67, 68, 69, 70, 71, 72, 73, 74, 75, 76, 77, 78, 79, 80, 81, 82, 83, 84, 85, 86, 87, 88, 89, 90, 91, 92, 93, 94, 95, 96, 97, 98, 99, 100, 101, 102, 103, 104, 105, 106, 107, 108, 109, 110, 111, 112, 113, 114, 115, 116, 117, 118, 119, 120, 121, 122, 123, 124, 125, 126, 127, 128, 129, 130, 131, 132, 133, 134, 135, 136, 137, 138, 139, 140, 141, 142, 143, 144, 145, 146, 147, 148, 149, 150, 151, 152, 153, 154, 155],
      "AcquisitionTime": ["175311.582500", "175313.582500", "175315.582500", "175317.582500", "175319.582500", "175321.582500", "175323.582500", "175325.582500", "175327.582500", "175329.582500", "175331.582500", "175333.582500", "175335.582500", "175337.582500", "175339.582500", "175341.582500", "175343.582500", "175345.582500", "175347.582500", "175349.582500", "175351.582500", "175353.582500", "175355.582500", "175357.582500", "175359.582500", "175401.582500", "175403.582500", "175405.582500", "175407.582500", "175409.582500", "175411.582500", "175413.582500", "175415.582500", "175417.582500", "175419.582500", "175421.582500", "175423.582500", "175425.582500", "175427.582500", "175429.582500", "175431.582500", "175433.582500", "175435.582500", "175437.582500", "175439.582500", "175441.582500", "175443.582500", "175445.582500", "175447.582500", "175449.582500", "175451.582500", "175453.582500", "175455.582500", "175457.582500", "175459.582500", "175501.582500", "175503.582500", "175505.582500", "175507.582500", "175509.582500", "175511.582500", "175513.582500", "175515.582500", "175517.582500", "175519.582500", "175521.582500", "175523.582500", "175525.582500", "175527.582500", "175529.582500", "175531.582500", "175533.582500", "175535.582500", "175537.582500", "175539.582500", "175541.582500", "175543.582500", "175545.582500", "175547.582500", "175549.582500", "175551.582500", "175553.582500", "175555.582500", "175557.582500", "175559.582500", "175601.582500", "175603.582500", "175605.582500", "175607.582500", "175609.582500", "175611.582500", "175613.582500", "175615.582500", "175617.582500", "175619.582500", "175621.582500", "175623.582500", "175625.582500", "175627.582500", "175629.582500", "175631.582500", "175633.582500", "175635.582500", "175637.582500", "175639.585000", "175641.585000", "175643.585000", "175645.585000", "175647.585000", "175649.585000", "175651.585000", "175653.585000", "175655.585000", "175657.585000", "175659.585000", "175701.585000", "175703.585000", "175705.585000", "175707.585000", "175709.585000", "175711.585000", "175713.585000", "175715.585000", "175717.585000", "175719.585000", "175721.585000", "175723.585000", "175725.585000", "175727.585000", "175729.585000", "175731.585000", "175733.585000", "175735.585000", "175737.585000", "175739.585000", "175741.585000", "175743.585000", "175745.585000", "175747.585000", "175749.585000", "175751.585000", "175753.585000", "175755.585000", "175757.585000", "175759.585000", "175801.585000", "175803.585000", "175805.585000", "175807.585000", "175809.585000", "175811.585000", "175813.585000", "175815.585000", "175817.585000", "175819.585000"],
      "ContentTime": ["175400.757000", "175400.761000", "175400.764000", "175400.766000", "175400.773000", "175400.776000", "175400.779000", "175400.782000", "175400.785000", "175400.788000", "175400.790000", "175400.793000", "175400.796000", "175400.799000", "175400.801000", "175400.804000", "175400.807000", "175400.810000", "175400.813000", "175400.815000", "175400.818000", "175400.821000", "175400.824000", "175400.826000", "175400.829000", "175440.736000", "175440.739000", "175440.742000", "175440.745000", "175440.748000", "175440.750000", "175440.753000", "175440.756000", "175440.759000", "175440.762000", "175440.764000", "175440.767000", "175440.770000", "175440.772000", "175440.775000", "175440.777000", "175440.780000", "175440.783000", "175440.786000", "175440.789000", "175520.735000", "175520.738000", "175520.741000", "175520.744000", "175520.746000", "175520.749000", "175520.752000", "175520.754000", "175520.757000", "175520.760000", "175520.763000", "175520.765000", "175520.768000", "175520.771000", "175520.773000", "175520.776000", "175520.779000", "175520.781000", "175520.784000", "175520.786000", "175600.735000", "175600.738000", "175600.741000", "175600.744000", "175600.746000", "175600.749000", "175600.752000", "175600.755000", "175600.758000", "175600.761000", "175600.763000", "175600.766000", "175600.769000", "175600.772000", "175600.775000", "175600.777000", "175600.780000", "175600.783000", "175600.786000", "175600.788000", "175620.735000", "175620.738000", "175620.741000", "175620.744000", "175620.746000", "175620.749000", "175620.752000", "175620.755000", "175620.758000", "175620.761000", "175700.736000", "175700.740000", "175700.743000", "175700.745000", "175700.748000", "175700.751000", "175700.754000", "175700.757000", "175700.759000", "175700.762000", "175700.765000", "175700.768000", "175700.771000", "175700.774000", "175700.776000", "175700.779000", "175700.782000", "175700.784000", "175700.787000", "175700.789000", "175740.735000", "175740.738000", "175740.741000", "175740.744000", "175740.746000", "175740.749000", "175740.752000", "175740.755000", "175740.758000", "175740.761000", "175740.763000", "175740.766000", "175740.769000", "175740.771000", "175740.774000", "175740.777000", "175740.779000", "175740.782000", "175740.785000", "175740.787000", "175819.870000", "175819.874000", "175819.877000", "175819.879000", "175819.882000", "175819.885000", "175819.888000", "175819.891000", "175819.893000", "175819.896000", "175819.899000", "175819.902000", "175819.906000", "175819.911000", "175819.914000", "175819.918000", "175819.921000", "175819.924000", "175819.927000", "175819.930000"],
      "InstanceCreationTime": ["175400.757000", "175400.761000", "175400.764000", "175400.766000", "175400.773000", "175400.776000", "175400.779000", "175400.782000", "175400.785000", "175400.788000", "175400.790000", "175400.793000", "175400.796000", "175400.799000", "175400.801000", "175400.804000", "175400.807000", "175400.810000", "175400.813000", "175400.815000", "175400.818000", "175400.821000", "175400.824000", "175400.826000", "175400.829000", "175440.736000", "175440.739000", "175440.742000", "175440.745000", "175440.748000", "175440.750000", "175440.753000", "175440.756000", "175440.759000", "175440.762000", "175440.764000", "175440.767000", "175440.770000", "175440.772000", "175440.775000", "175440.777000", "175440.780000", "175440.783000", "175440.786000", "175440.789000", "175520.735000", "175520.738000", "175520.741000", "175520.744000", "175520.746000", "175520.749000", "175520.752000", "175520.754000", "175520.757000", "175520.760000", "175520.763000", "175520.765000", "175520.768000", "175520.771000", "175520.773000", "175520.776000", "175520.779000", "175520.781000", "175520.784000", "175520.786000", "175600.735000", "175600.738000", "175600.741000", "175600.744000", "175600.746000", "175600.749000", "175600.752000", "175600.755000", "175600.758000", "175600.761000", "175600.763000", "175600.766000", "175600.769000", "175600.772000", "175600.775000", "175600.777000", "175600.780000", "175600.783000", "175600.786000", "175600.788000", "175620.735000", "175620.738000", "175620.741000", "175620.744000", "175620.746000", "175620.749000", "175620.752000", "175620.755000", "175620.758000", "175620.761000", "175700.736000", "175700.740000", "175700.743000", "175700.745000", "175700.748000", "175700.751000", "175700.754000", "175700.757000", "175700.759000", "175700.762000", "175700.765000", "175700.768000", "175700.771000", "175700.774000", "175700.776000", "175700.779000", "175700.782000", "175700.784000", "175700.787000", "175700.789000", "175740.735000", "175740.738000", "175740.741000", "175740.744000", "175740.746000", "175740.749000", "175740.752000", "175740.755000", "175740.758000", "175740.761000", "175740.763000", "175740.766000", "175740.769000", "175740.771000", "175740.774000", "175740.777000", "175740.779000", "175740.782000", "175740.785000", "175740.787000", "175819.870000", "175819.874000", "175819.877000", "175819.879000", "175819.882000", "175819.885000", "175819.888000", "175819.891000", "175819.893000", "175819.896000", "175819.899000", "175819.902000", "175819.906000", "175819.911000", "175819.914000", "175819.918000", "175819.921000", "175819.924000", "175819.927000", "175819.930000"],
      "InstanceNumber": [1, 2, 3, 4, 5, 6, 7, 8, 9, 10, 11, 12, 13, 14, 15, 16, 17, 18, 19, 20, 21, 22, 23, 24, 25, 26, 27, 28, 29, 30, 31, 32, 33, 34, 35, 36, 37, 38, 39, 40, 41, 42, 43, 44, 45, 46, 47, 48, 49, 50, 51, 52, 53, 54, 55, 56, 57, 58, 59, 60, 61, 62, 63, 64, 65, 66, 67, 68, 69, 70, 71, 72, 73, 74, 75, 76, 77, 78, 79, 80, 81, 82, 83, 84, 85, 86, 87, 88, 89, 90, 91, 92, 93, 94, 95, 96, 97, 98, 99, 100, 101, 102, 103, 104, 105, 106, 107, 108, 109, 110, 111, 112, 113, 114, 115, 116, 117, 118, 119, 120, 121, 122, 123, 124, 125, 126, 127, 128, 129, 130, 131, 132, 133, 134, 135, 136, 137, 138, 139, 140, 141, 142, 143, 144, 145, 146, 147, 148, 149, 150, 151, 152, 153, 154, 155],
      "LargestImagePixelValue": [824, 932, 838, 836, 806, 936, 830, 813, 997, 851, 839, 1024, 809, 814, 881, 811, 816, 877, 815, 810, 845, 817, 819, 871, 824, 844, 821, 817, 869, 832, 917, 864, 1022, 869, 816, 924, 886, 840, 824, 809, 1001, 894, 830, 824, 822, 977, 821, 820, 1011, 834, 879, 815, 916, 807, 906, 1007, 822, 985, 825, 904, 809, 863, 909, 827, 907, 815, 811, 811, 826, 814, 827, 813, 829, 843, 819, 821, 897, 837, 822, 832, 833, 932, 970, 817, 988, 829, 888, 864, 872, 824, 826, 878, 842, 847, 813, 840, 832, 808, 814, 821, 817, 895, 814, 925, 835, 927, 850, 933, 864, 813, 928, 856, 866, 838, 829, 826, 819, 834, 832, 855, 999, 812, 916, 824, 825, 830, 820, 822, 823, 817, 822, 839, 978, 885, 814, 907, 834, 809, 825, 809, 819, 815, 823, 888, 969, 881, 817, 893, 808, 879, 801, 962, 808, 942, 849],
      "WindowCenter": [458.0, 459.0, 457.0, 456.0, 455.0, 457.0, 456.0, 456.0, 458.0, 455.0, 455.0, 456.0, 452.0, 453.0, 454.0, 453.0, 454.0, 455.0, 455.0, 455.0, 456.0, 456.0, 457.0, 458.0, 458.0, 459.0, 459.0, 459.0, 461.0, 460.0, 461.0, 460.0, 461.0, 459.0, 457.0, 458.0, 458.0, 457.0, 458.0, 456.0, 459.0, 457.0, 457.0, 457.0, 457.0, 459.0, 457.0, 457.0, 459.0, 457.0, 459.0, 458.0, 459.0, 458.0, 458.0, 459.0, 456.0, 458.0, 456.0, 456.0, 455.0, 457.0, 457.0, 456.0, 456.0, 455.0, 455.0, 454.0, 455.0, 455.0, 456.0, 456.0, 457.0, 457.0, 456.0, 457.0, 458.0, 458.0, 458.0, 459.0, 459.0, 460.0, 460.0, 456.0, 458.0, 456.0, 458.0, 457.0, 457.0, 455.0, 456.0, 456.0, 456.0, 456.0, 456.0, 456.0, 456.0, 456.0, 456.0, 456.0, 456.0, 458.0, 458.0, 459.0, 458.0, 458.0, 457.0, 457.0, 456.0, 455.0, 456.0, 456.0, 456.0, 455.0, 455.0, 455.0, 458.0, 457.0, 458.0, 457.0, 458.0, 455.0, 456.0, 455.0, 455.0, 456.0, 456.0, 456.0, 457.0, 456.0, 456.0, 456.0, 458.0, 456.0, 455.0, 457.0, 456.0, 457.0, 457.0, 457.0, 458.0, 458.0, 459.0, 460.0, 460.0, 459.0, 458.0, 459.0, 458.0, 459.0, 458.0, 460.0, 458.0, 460.0, 458.0],
      "WindowWidth": [958.0, 959.0, 956.0, 954.0, 953.0, 955.0, 954.0, 953.0, 956.0, 952.0, 951.0, 953.0, 947.0, 948.0, 950.0, 949.0, 950.0, 951.0, 951.0, 951.0, 954.0, 954.0, 955.0, 958.0, 957.0, 959.0, 958.0, 960.0, 962.0, 961.0, 962.0, 961.0, 962.0, 958.0, 956.0, 957.0, 956.0, 955.0, 957.0, 954.0, 958.0, 956.0, 955.0, 955.0, 954.0, 958.0, 955.0, 955.0, 959.0, 956.0, 958.0, 957.0, 960.0, 958.0, 958.0, 959.0, 953.0, 957.0, 953.0, 954.0, 952.0, 955.0, 955.0, 953.0, 954.0, 951.0, 951.0, 951.0, 952.0, 952.0, 954.0, 954.0, 954.0, 956.0, 954.0, 955.0, 958.0, 957.0, 958.0, 960.0, 959.0, 960.0, 960.0, 955.0, 957.0, 954.0, 956.0, 955.0, 955.0, 953.0, 953.0, 953.0, 954.0, 954.0, 953.0, 954.0, 954.0, 954.0, 954.0, 954.0, 955.0, 957.0, 957.0, 959.0, 957.0, 957.0, 956.0, 955.0, 953.0, 951.0, 953.0, 953.0, 952.0, 951.0, 951.0, 953.0, 957.0, 955.0, 957.0, 955.0, 956.0, 952.0, 954.0, 951.0, 953.0, 953.0, 954.0, 954.0, 955.0, 954.0, 954.0, 954.0, 956.0, 954.0, 953.0, 954.0, 954.0, 955.0, 956.0, 957.0, 957.0, 957.0, 958.0, 960.0, 960.0, 959.0, 957.0, 959.0, 958.0, 959.0, 958.0, 961.0, 958.0, 960.0, 957.0]
    },
    "slices": {}
  }
}