{
  "AcquisitionMatrixPE": 64,
  "AcquisitionNumber": 1,
  "AcquisitionTime": "17:21:3.590000",
  "BandwidthPerPixelPhaseEncode": 40.064,
  "BaseResolution": 64,
  "BodyPartExamined": "BRAIN",
  "ConsistencyInfo": "N4_VD13D_LATEST_20130810",
  "ConversionSoftware": "dcm2niix",
  "ConversionSoftwareVersion": "v1.0.20191031",
  "DerivedVendorReportedEchoSpacing": 0.000780002,
  "DeviceSerialNumber": "67007",
  "DwellTime": 5.3e-06,
  "EchoTime": 0.03,
  "EchoTrainLength": 31,
  "EffectiveEchoSpacing": 0.000390001,
  "FlipAngle": 75,
  "ImageOrientationPatientDICOM": [0.999601, 0.0201855, 0.01974, -0.0226841, 0.990467, 0.135869],
  "ImageType": [
    "ORIGINAL",
    "PRIMARY",
    "M",
    "ND",
    "NORM",
    "MOSAIC"
],
  "ImagingFrequency": 123.211,
  "InPlanePhaseEncodingDirectionDICOM": "ROW",
  "InstitutionAddress": "Perth_Drive_100_London_Ontario_CA_N6A_5K8",
  "InstitutionName": "Robarts-CFMM",
  "InstitutionalDepartmentName": "CFMM",
  "MRAcquisitionType": "2D",
  "MagneticFieldStrength": 3,
  "Manufacturer": "Siemens",
  "ManufacturersModelName": "Prisma_fit",
  "Modality": "MR",
  "ParallelReductionFactorInPlane": 2,
  "PartialFourier": 1,
  "PatientPosition": "HFS",
  "PercentPhaseFOV": 100,
  "PhaseEncodingDirection": "i",
  "PhaseEncodingSteps": 63,
  "PhaseResolution": 1,
  "PixelBandwidth": 1475,
  "ProcedureStepDescription": "Owen_Naci",
  "ProtocolName": "taken_light_sed",
  "PulseSequenceDetails": "%SiemensSeq%_ep2d_bold",
  "ReceiveCoilActiveElements": "HEA;HEP",
  "ReceiveCoilName": "Head_32",
  "ReconMatrixPE": 64,
  "RefLinesPE": 24,
  "RepetitionTime": 2,
  "SAR": 0.0885226,
  "ScanOptions": "FS",
  "ScanningSequence": "EP",
  "SequenceName": "_epfid2d1_64",
  "SequenceVariant": "SK",
  "SeriesDescription": "taken_light_sed",
  "SeriesNumber": 12,
  "ShimSetting": [5237, -6191, -3843, 344, -21, -75, 14, 13],
  "SliceThickness": 3,
  "SliceTiming": [1.92, 1.86, 1.8, 1.74, 1.68, 1.62, 1.56, 1.5, 1.44, 1.38, 1.32, 1.26, 1.2, 1.14, 1.08, 1.02, 0.96, 0.9, 0.84, 0.78, 0.72, 0.66, 0.6, 0.54, 0.48, 0.42, 0.36, 0.3, 0.24, 0.18, 0.12, 0.06, 0],
  "SoftwareVersions": "syngo_MR_D13D",
  "SpacingBetweenSlices": 3.75,
  "StationName": "AWP67007",
  "TaskName": "audiolight",
  "TotalReadoutTime": 0.0245701,
  "TxRefAmp": 259.108,
  "dcmmeta_affine": [
    [-2.9988040924072266, -0.06805238127708435, 0.06303481012582779, 97.19085693359375],
    [-0.06055636331439018, 2.9714012145996094, 0.5109841227531433, -81.46173095703125],
    [0.05922010913491249, -0.40760642290115356, 3.7144882678985596, -28.151582717895508],
    [0.0, 0.0, 0.0, 1.0]
],
  "dcmmeta_reorient_transform": [
    [0.0, -1.0, 0.0, 63.0],
    [1.0, 0.0, 0.0, 0.0],
    [0.0, 0.0, 1.0, 0.0],
    [0.0, 0.0, 0.0, 1.0]
],
  "dcmmeta_shape": [64, 64, 33, 155],
  "dcmmeta_slice_dim": 2,
  "dcmmeta_version": 0.6,
  "global": {
    "const": {
      "AcquisitionMatrix": [0, 64, 64, 0],
      "AngioFlag": "N",
      "BitsAllocated": 16,
      "BitsStored": 12,
      "BodyPartExamined": "BRAIN",
      "Columns": 384,
      "EchoNumbers": 1,
      "EchoTime": 30.0,
      "EchoTrainLength": 31,
      "FlipAngle": 75.0,
      "HighBit": 11,
      "ImageOrientationPatient": [0.9996013597255, 0.02018545486823, 0.01974003664388, -0.0226841272627, 0.99046711033283, 0.13586881069354],
      "ImagePositionPatient": [-561.82382725091, -590.84978765865, -128.52303386543],
      "ImageType": [
        "ORIGINAL",
        "PRIMARY",
        "M",
        "ND",
        "NORM",
        "MOSAIC"
],
      "ImagedNucleus": "1H",
      "ImagingFrequency": 123.211114,
      "InPlanePhaseEncodingDirection": "ROW",
      "MRAcquisitionType": "2D",
      "MagneticFieldStrength": 3.0,
      "Manufacturer": "SIEMENS",
      "ManufacturerModelName": "Prisma_fit",
      "Modality": "MR",
      "NumberOfAverages": 1.0,
      "NumberOfPhaseEncodingSteps": 63,
      "PercentPhaseFieldOfView": 100.0,
      "PercentSampling": 100.0,
      "PerformedProcedureStepStartTime": "161631.696000",
      "PhotometricInterpretation": "MONOCHROME2",
      "PixelBandwidth": 1475.0,
      "PixelRepresentation": 0,
      "PixelSpacing": [3.0, 3.0],
      "ProtocolName": "taken_light_sed",
      "RepetitionTime": 2000.0,
      "Rows": 384,
      "SAR": 0.08852258234937,
      "SamplesPerPixel": 1,
      "ScanOptions": "FS",
      "ScanningSequence": "EP",
      "SequenceName": "*epfid2d1_64",
      "SequenceVariant": "SK",
      "SeriesDescription": "taken_light_sed",
      "SeriesNumber": 12,
      "SeriesTime": "172200.737000",
      "SliceLocation": -37.351455526441,
      "SliceThickness": 3.0,
      "SmallestImagePixelValue": 0,
      "SoftwareVersions": "syngo MR D13D",
      "SpacingBetweenSlices": 3.7500000531564,
      "SpecificCharacterSet": "ISO_IR 100",
      "StudyID": "1",
      "StudyTime": "161631.639000",
      "TimeOfLastCalibration": ["123723.000000", "123723.000000"],
      "TransmitCoilName": "Body",
      "VariableFlipAngleFlag": "N",
      "WindowCenterWidthExplanation": "Algo1",
      "dBdt": 0.0},
    "slices": {}
  },
  "time": {
    "samples": {
      "AcquisitionNumber": [1, 2, 3, 4, 5, 6, 7, 8, 9, 10, 11, 12, 13, 14, 15, 16, 17, 18, 19, 20, 21, 22, 23, 24, 25, 26, 27, 28, 29, 30, 31, 32, 33, 34, 35, 36, 37, 38, 39, 40, 41, 42, 43, 44, 45, 46, 47, 48, 49, 50, 51, 52, 53, 54, 55, 56, 57, 58, 59, 60, 61, 62, 63, 64, 65, 66, 67, 68, 69, 70, 71, 72, 73, 74, 75, 76, 77, 78, 79, 80, 81, 82, 83, 84, 85, 86, 87, 88, 89, 90, 91, 92, 93, 94, 95, 96, 97, 98, 99, 100, 101, 102, 103, 104, 105, 106, 107, 108, 109, 110, 111, 112, 113, 114, 115, 116, 117, 118, 119, 120, 121, 122, 123, 124, 125, 126, 127, 128, 129, 130, 131, 132, 133, 134, 135, 136, 137, 138, 139, 140, 141, 142, 143, 144, 145, 146, 147, 148, 149, 150, 151, 152, 153, 154, 155],
      "AcquisitionTime": ["172103.590000", "172105.590000", "172107.590000", "172109.590000", "172111.590000", "172113.590000", "172115.590000", "172117.590000", "172119.590000", "172121.590000", "172123.590000", "172125.590000", "172127.590000", "172129.590000", "172131.590000", "172133.590000", "172135.590000", "172137.590000", "172139.590000", "172141.590000", "172143.590000", "172145.590000", "172147.590000", "172149.590000", "172151.590000", "172153.590000", "172155.590000", "172157.590000", "172159.590000", "172201.590000", "172203.590000", "172205.590000", "172207.590000", "172209.590000", "172211.590000", "172213.590000", "172215.590000", "172217.590000", "172219.590000", "172221.590000", "172223.590000", "172225.590000", "172227.590000", "172229.590000", "172231.590000", "172233.590000", "172235.590000", "172237.590000", "172239.590000", "172241.590000", "172243.590000", "172245.590000", "172247.590000", "172249.590000", "172251.590000", "172253.590000", "172255.590000", "172257.590000", "172259.592500", "172301.592500", "172303.592500", "172305.592500", "172307.592500", "172309.592500", "172311.592500", "172313.592500", "172315.592500", "172317.592500", "172319.592500", "172321.592500", "172323.592500", "172325.592500", "172327.592500", "172329.592500", "172331.592500", "172333.592500", "172335.592500", "172337.592500", "172339.592500", "172341.592500", "172343.592500", "172345.592500", "172347.592500", "172349.592500", "172351.592500", "172353.592500", "172355.592500", "172357.592500", "172359.592500", "172401.592500", "172403.592500", "172405.592500", "172407.592500", "172409.592500", "172411.592500", "172413.592500", "172415.592500", "172417.592500", "172419.592500", "172421.592500", "172423.592500", "172425.592500", "172427.592500", "172429.592500", "172431.592500", "172433.592500", "172435.592500", "172437.592500", "172439.592500", "172441.592500", "172443.592500", "172445.592500", "172447.592500", "172449.592500", "172451.592500", "172453.592500", "172455.592500", "172457.592500", "172459.592500", "172501.592500", "172503.592500", "172505.592500", "172507.592500", "172509.592500", "172511.592500", "172513.592500", "172515.592500", "172517.592500", "172519.592500", "172521.592500", "172523.592500", "172525.592500", "172527.592500", "172529.592500", "172531.592500", "172533.592500", "172535.592500", "172537.592500", "172539.592500", "172541.592500", "172543.592500", "172545.592500", "172547.592500", "172549.592500", "172551.592500", "172553.592500", "172555.592500", "172557.592500", "172559.592500", "172601.592500", "172603.592500", "172605.592500", "172607.592500", "172609.592500", "172611.592500"],
      "ContentTime": ["172200.741000", "172200.745000", "172200.748000", "172200.751000", "172200.754000", "172200.757000", "172200.760000", "172200.763000", "172200.766000", "172200.768000", "172200.771000", "172200.774000", "172200.777000", "172200.780000", "172200.783000", "172200.786000", "172200.788000", "172200.791000", "172200.794000", "172200.802000", "172200.805000", "172200.808000", "172200.811000", "172200.814000", "172200.817000", "172200.820000", "172200.823000", "172200.826000", "172200.828000", "172240.736000", "172240.740000", "172240.743000", "172240.745000", "172240.748000", "172240.751000", "172240.753000", "172240.756000", "172240.758000", "172240.761000", "172240.764000", "172240.766000", "172240.769000", "172240.772000", "172240.775000", "172240.778000", "172240.781000", "172240.784000", "172240.787000", "172240.790000", "172320.735000", "172320.738000", "172320.741000", "172320.744000", "172320.746000", "172320.749000", "172320.752000", "172320.754000", "172320.757000", "172320.759000", "172320.762000", "172320.765000", "172320.768000", "172320.770000", "172320.773000", "172320.776000", "172320.779000", "172320.782000", "172320.785000", "172320.787000", "172400.735000", "172400.739000", "172400.742000", "172400.744000", "172400.747000", "172400.750000", "172400.753000", "172400.756000", "172400.759000", "172400.761000", "172400.765000", "172400.768000", "172400.771000", "172400.773000", "172400.776000", "172400.779000", "172400.782000", "172400.785000", "172400.787000", "172400.790000", "172440.736000", "172440.739000", "172440.742000", "172440.745000", "172440.748000", "172440.751000", "172440.754000", "172440.756000", "172440.759000", "172440.762000", "172440.765000", "172440.768000", "172440.770000", "172440.773000", "172440.776000", "172440.779000", "172440.782000", "172440.785000", "172440.787000", "172440.790000", "172520.735000", "172520.739000", "172520.741000", "172520.744000", "172520.747000", "172520.750000", "172520.753000", "172520.756000", "172520.758000", "172520.761000", "172520.764000", "172520.767000", "172520.770000", "172520.773000", "172520.775000", "172520.778000", "172520.781000", "172520.784000", "172520.787000", "172520.790000", "172600.735000", "172600.738000", "172600.741000", "172600.744000", "172600.747000", "172600.750000", "172600.753000", "172600.756000", "172600.758000", "172600.761000", "172600.764000", "172600.767000", "172600.770000", "172600.773000", "172600.775000", "172600.778000", "172600.781000", "172600.784000", "172600.792000", "172600.795000", "172612.594000", "172612.598000", "172612.600000", "172612.603000", "172612.606000", "172612.608000"],
      "InstanceCreationTime": ["172200.741000", "172200.745000", "172200.748000", "172200.751000", "172200.754000", "172200.757000", "172200.760000", "172200.763000", "172200.766000", "172200.768000", "172200.771000", "172200.774000", "172200.777000", "172200.780000", "172200.783000", "172200.786000", "172200.788000", "172200.791000", "172200.794000", "172200.802000", "172200.805000", "172200.808000", "172200.811000", "172200.814000", "172200.817000", "172200.820000", "172200.823000", "172200.826000", "172200.828000", "172240.736000", "172240.740000", "172240.743000", "172240.745000", "172240.748000", "172240.751000", "172240.753000", "172240.756000", "172240.758000", "172240.761000", "172240.764000", "172240.766000", "172240.769000", "172240.772000", "172240.775000", "172240.778000", "172240.781000", "172240.784000", "172240.787000", "172240.790000", "172320.735000", "172320.738000", "172320.741000", "172320.744000", "172320.746000", "172320.749000", "172320.752000", "172320.754000", "172320.757000", "172320.759000", "172320.762000", "172320.765000", "172320.768000", "172320.770000", "172320.773000", "172320.776000", "172320.779000", "172320.782000", "172320.785000", "172320.787000", "172400.735000", "172400.739000", "172400.742000", "172400.744000", "172400.747000", "172400.750000", "172400.753000", "172400.756000", "172400.759000", "172400.761000", "172400.765000", "172400.768000", "172400.771000", "172400.773000", "172400.776000", "172400.779000", "172400.782000", "172400.785000", "172400.787000", "172400.790000", "172440.736000", "172440.739000", "172440.742000", "172440.745000", "172440.748000", "172440.751000", "172440.754000", "172440.756000", "172440.759000", "172440.762000", "172440.765000", "172440.768000", "172440.770000", "172440.773000", "172440.776000", "172440.779000", "172440.782000", "172440.785000", "172440.787000", "172440.790000", "172520.735000", "172520.739000", "172520.741000", "172520.744000", "172520.747000", "172520.750000", "172520.753000", "172520.756000", "172520.758000", "172520.761000", "172520.764000", "172520.767000", "172520.770000", "172520.773000", "172520.775000", "172520.778000", "172520.781000", "172520.784000", "172520.787000", "172520.790000", "172600.735000", "172600.738000", "172600.741000", "172600.744000", "172600.747000", "172600.750000", "172600.753000", "172600.756000", "172600.758000", "172600.761000", "172600.764000", "172600.767000", "172600.770000", "172600.773000", "172600.775000", "172600.778000", "172600.781000", "172600.784000", "172600.792000", "172600.795000", "172612.594000", "172612.598000", "172612.600000", "172612.603000", "172612.606000", "172612.608000"],
      "InstanceNumber": [1, 2, 3, 4, 5, 6, 7, 8, 9, 10, 11, 12, 13, 14, 15, 16, 17, 18, 19, 20, 21, 22, 23, 24, 25, 26, 27, 28, 29, 30, 31, 32, 33, 34, 35, 36, 37, 38, 39, 40, 41, 42, 43, 44, 45, 46, 47, 48, 49, 50, 51, 52, 53, 54, 55, 56, 57, 58, 59, 60, 61, 62, 63, 64, 65, 66, 67, 68, 69, 70, 71, 72, 73, 74, 75, 76, 77, 78, 79, 80, 81, 82, 83, 84, 85, 86, 87, 88, 89, 90, 91, 92, 93, 94, 95, 96, 97, 98, 99, 100, 101, 102, 103, 104, 105, 106, 107, 108, 109, 110, 111, 112, 113, 114, 115, 116, 117, 118, 119, 120, 121, 122, 123, 124, 125, 126, 127, 128, 129, 130, 131, 132, 133, 134, 135, 136, 137, 138, 139, 140, 141, 142, 143, 144, 145, 146, 147, 148, 149, 150, 151, 152, 153, 154, 155],
      "LargestImagePixelValue": [958, 976, 784, 864, 1115, 894, 823, 894, 778, 784, 810, 823, 804, 815, 818, 849, 821, 828, 825, 908, 833, 804, 824, 806, 792, 815, 846, 1023, 784, 822, 831, 812, 891, 861, 787, 932, 814, 881, 821, 826, 830, 853, 945, 827, 870, 821, 809, 831, 806, 835, 787, 975, 838, 835, 833, 803, 850, 809, 802, 864, 809, 891, 821, 787, 793, 818, 848, 888, 822, 796, 816, 805, 880, 832, 853, 834, 808, 930, 802, 1006, 809, 844, 812, 806, 828, 830, 853, 927, 806, 872, 838, 834, 834, 812, 955, 832, 807, 852, 817, 973, 808, 996, 838, 895, 828, 812, 816, 814, 823, 843, 879, 808, 833, 877, 850, 859, 824, 841, 844, 815, 845, 812, 825, 824, 823, 818, 830, 821, 857, 825, 810, 820, 807, 957, 815, 901, 836, 822, 913, 891, 876, 842, 860, 824, 992, 829, 922, 822, 851, 802, 800, 815, 934, 831, 891],
      "WindowCenter": [450.0, 453.0, 450.0, 452.0, 450.0, 445.0, 445.0, 453.0, 444.0, 443.0, 444.0, 444.0, 445.0, 446.0, 446.0, 447.0, 446.0, 448.0, 449.0, 450.0, 449.0, 449.0, 449.0, 450.0, 450.0, 451.0, 451.0, 452.0, 449.0, 449.0, 450.0, 450.0, 450.0, 449.0, 449.0, 451.0, 450.0, 451.0, 450.0, 451.0, 450.0, 450.0, 451.0, 450.0, 451.0, 450.0, 450.0, 450.0, 450.0, 450.0, 451.0, 452.0, 450.0, 450.0, 450.0, 451.0, 451.0, 450.0, 449.0, 451.0, 450.0, 452.0, 451.0, 451.0, 451.0, 451.0, 451.0, 450.0, 449.0, 450.0, 450.0, 450.0, 450.0, 449.0, 450.0, 449.0, 449.0, 450.0, 448.0, 451.0, 448.0, 449.0, 449.0, 448.0, 448.0, 449.0, 450.0, 450.0, 448.0, 449.0, 448.0, 448.0, 449.0, 448.0, 450.0, 447.0, 448.0, 449.0, 449.0, 452.0, 448.0, 451.0, 449.0, 449.0, 448.0, 449.0, 449.0, 449.0, 449.0, 449.0, 449.0, 447.0, 447.0, 448.0, 447.0, 447.0, 446.0, 447.0, 447.0, 448.0, 449.0, 450.0, 450.0, 449.0, 448.0, 448.0, 449.0, 448.0, 449.0, 448.0, 448.0, 449.0, 449.0, 451.0, 449.0, 449.0, 448.0, 448.0, 449.0, 448.0, 448.0, 447.0, 449.0, 449.0, 450.0, 447.0, 448.0, 446.0, 448.0, 447.0, 447.0, 447.0, 449.0, 447.0, 448.0],
      "WindowWidth": [942.0, 947.0, 943.0, 946.0, 940.0, 931.0, 932.0, 949.0, 931.0, 928.0, 930.0, 930.0, 932.0, 934.0, 934.0, 935.0, 934.0, 938.0, 939.0, 940.0, 939.0, 940.0, 940.0, 941.0, 941.0, 944.0, 944.0, 944.0, 940.0, 941.0, 941.0, 941.0, 942.0, 941.0, 939.0, 942.0, 941.0, 944.0, 941.0, 944.0, 943.0, 942.0, 942.0, 941.0, 943.0, 941.0, 942.0, 941.0, 941.0, 942.0, 943.0, 945.0, 941.0, 942.0, 942.0, 943.0, 944.0, 942.0, 940.0, 943.0, 942.0, 945.0, 943.0, 944.0, 944.0, 944.0, 943.0, 942.0, 941.0, 941.0, 941.0, 942.0, 941.0, 940.0, 941.0, 940.0, 940.0, 941.0, 939.0, 942.0, 938.0, 940.0, 940.0, 939.0, 938.0, 939.0, 941.0, 942.0, 937.0, 939.0, 938.0, 938.0, 940.0, 939.0, 941.0, 937.0, 938.0, 939.0, 940.0, 944.0, 939.0, 942.0, 939.0, 940.0, 939.0, 940.0, 940.0, 939.0, 940.0, 940.0, 940.0, 936.0, 937.0, 937.0, 935.0, 935.0, 935.0, 937.0, 937.0, 938.0, 940.0, 941.0, 942.0, 939.0, 938.0, 938.0, 939.0, 938.0, 939.0, 938.0, 938.0, 941.0, 940.0, 943.0, 939.0, 940.0, 938.0, 937.0, 939.0, 938.0, 938.0, 937.0, 940.0, 939.0, 942.0, 937.0, 938.0, 935.0, 938.0, 936.0, 937.0, 937.0, 939.0, 937.0, 938.0]
    },
    "slices": {}
  }
}