{
  "AcquisitionMatrixPE": 64,
  "AcquisitionNumber": 1,
  "AcquisitionTime": "18:44:58.735000",
  "BandwidthPerPixelPhaseEncode": 40.064,
  "BaseResolution": 64,
  "BodyPartExamined": "BRAIN",
  "ConsistencyInfo": "N4_VD13D_LATEST_20130810",
  "ConversionSoftware": "dcm2niix",
  "ConversionSoftwareVersion": "v1.0.20191031",
  "DerivedVendorReportedEchoSpacing": 0.000780002,
  "DeviceSerialNumber": "67007",
  "DwellTime": 5.3e-06,
  "EchoTime": 0.03,
  "EchoTrainLength": 31,
  "EffectiveEchoSpacing": 0.000390001,
  "FlipAngle": 75,
  "ImageOrientationPatientDICOM": [0.999133, 0.0414006, 0.00450159, -0.0401293, 0.98603, -0.161662],
  "ImageType": [
    "ORIGINAL",
    "PRIMARY",
    "M",
    "ND",
    "NORM",
    "MOSAIC"
],
  "ImagingFrequency": 123.211,
  "InPlanePhaseEncodingDirectionDICOM": "ROW",
  "InstitutionAddress": "Perth_Drive_100_London_Ontario_CA_N6A_5K8",
  "InstitutionName": "Robarts_Research_Institute",
  "InstitutionalDepartmentName": "CFMM",
  "MRAcquisitionType": "2D",
  "MagneticFieldStrength": 3,
  "Manufacturer": "Siemens",
  "ManufacturersModelName": "Prisma_fit",
  "Modality": "MR",
  "ParallelReductionFactorInPlane": 2,
  "PartialFourier": 1,
  "PatientPosition": "HFS",
  "PercentPhaseFOV": 100,
  "PhaseEncodingDirection": "i",
  "PhaseEncodingSteps": 63,
  "PhaseResolution": 1,
  "PixelBandwidth": 1475,
  "ProcedureStepDescription": "Owen_Naci",
  "ProtocolName": "taken",
  "PulseSequenceDetails": "%SiemensSeq%_ep2d_bold",
  "ReceiveCoilActiveElements": "HEA;HEP",
  "ReceiveCoilName": "Head_32",
  "ReconMatrixPE": 64,
  "RefLinesPE": 24,
  "RepetitionTime": 2,
  "SAR": 0.120878,
  "ScanOptions": "FS",
  "ScanningSequence": "EP",
  "SequenceName": "_epfid2d1_64",
  "SequenceVariant": "SK",
  "SeriesDescription": "taken",
  "SeriesNumber": 3,
  "ShimSetting": [5262, -6210, -3765, 402, 28, -118, 122, -6],
  "SliceThickness": 3,
  "SliceTiming": [1.92, 1.86, 1.8, 1.74, 1.68, 1.62, 1.56, 1.5, 1.44, 1.38, 1.32, 1.26, 1.2, 1.14, 1.08, 1.02, 0.96, 0.9, 0.84, 0.78, 0.72, 0.66, 0.6, 0.54, 0.48, 0.42, 0.36, 0.3, 0.24, 0.18, 0.12, 0.06, 0],
  "SoftwareVersions": "syngo_MR_D13D",
  "SpacingBetweenSlices": 3.75,
  "StationName": "AWP67007",
  "TaskName": "audio",
  "TotalReadoutTime": 0.0245701,
  "TxRefAmp": 322.304,
  "dcmmeta_affine": [
    [-2.9973974227905273, -0.12038791924715042, 0.04174353927373886, 101.47430419921875],
    [-0.12420179694890976, 2.958089828491211, -0.605029284954071, -64.37215423583984],
    [0.01350477896630764, 0.4849861264228821, 3.700634479522705, -41.04717254638672],
    [0.0, 0.0, 0.0, 1.0]
],
  "dcmmeta_reorient_transform": [
    [0.0, -1.0, 0.0, 63.0],
    [1.0, 0.0, 0.0, 0.0],
    [0.0, 0.0, 1.0, 0.0],
    [0.0, 0.0, 0.0, 1.0]
],
  "dcmmeta_shape": [64, 64, 33, 155],
  "dcmmeta_slice_dim": 2,
  "dcmmeta_version": 0.6,
  "global": {
    "const": {
      "AcquisitionMatrix": [0, 64, 64, 0],
      "AngioFlag": "N",
      "BitsAllocated": 16,
      "BitsStored": 12,
      "BodyPartExamined": "BRAIN",
      "Columns": 384,
      "EchoNumbers": 1,
      "EchoTime": 30.0,
      "EchoTrainLength": 31,
      "FlipAngle": 75.0,
      "HighBit": 11,
      "ImageOrientationPatient": [0.99913248669789, 0.04140060004933, 0.0045015931021, -0.0401293067298, 0.9860299298234, -0.1616620432688],
      "ImagePositionPatient": [-554.21138984718, -615.15415314492, 64.943971145387],
      "ImageType": [
        "ORIGINAL",
        "PRIMARY",
        "M",
        "ND",
        "NORM",
        "MOSAIC"
],
      "ImagedNucleus": "1H",
      "ImagingFrequency": 123.21119,
      "InPlanePhaseEncodingDirection": "ROW",
      "MRAcquisitionType": "2D",
      "MagneticFieldStrength": 3.0,
      "Manufacturer": "SIEMENS",
      "ManufacturerModelName": "Prisma_fit",
      "Modality": "MR",
      "NumberOfAverages": 1.0,
      "NumberOfPhaseEncodingSteps": 63,
      "PercentPhaseFieldOfView": 100.0,
      "PercentSampling": 100.0,
      "PerformedProcedureStepStartTime": "183209.631000",
      "PhotometricInterpretation": "MONOCHROME2",
      "PixelBandwidth": 1475.0,
      "PixelRepresentation": 0,
      "PixelSpacing": [3.0, 3.0],
      "ProtocolName": "taken",
      "RepetitionTime": 2000.0,
      "Rows": 384,
      "SAR": 0.12087839923134,
      "SamplesPerPixel": 1,
      "ScanOptions": "FS",
      "ScanningSequence": "EP",
      "SequenceName": "*epfid2d1_64",
      "SequenceVariant": "SK",
      "SeriesDescription": "taken",
      "SeriesNumber": 3,
      "SeriesTime": "184502.532000",
      "SliceLocation": -28.991371898816,
      "SliceThickness": 3.0,
      "SmallestImagePixelValue": 0,
      "SoftwareVersions": "syngo MR D13D",
      "SpacingBetweenSlices": 3.7499999177386,
      "SpecificCharacterSet": "ISO_IR 100",
      "StudyID": "1",
      "StudyTime": "183209.576000",
      "TimeOfLastCalibration": ["123723.000000", "123723.000000"],
      "TransmitCoilName": "Body",
      "VariableFlipAngleFlag": "N",
      "WindowCenterWidthExplanation": "Algo1",
      "dBdt": 0.0},
    "slices": {}
  },
  "time": {
    "samples": {
      "AcquisitionNumber": [1, 2, 3, 4, 5, 6, 7, 8, 9, 10, 11, 12, 13, 14, 15, 16, 17, 18, 19, 20, 21, 22, 23, 24, 25, 26, 27, 28, 29, 30, 31, 32, 33, 34, 35, 36, 37, 38, 39, 40, 41, 42, 43, 44, 45, 46, 47, 48, 49, 50, 51, 52, 53, 54, 55, 56, 57, 58, 59, 60, 61, 62, 63, 64, 65, 66, 67, 68, 69, 70, 71, 72, 73, 74, 75, 76, 77, 78, 79, 80, 81, 82, 83, 84, 85, 86, 87, 88, 89, 90, 91, 92, 93, 94, 95, 96, 97, 98, 99, 100, 101, 102, 103, 104, 105, 106, 107, 108, 109, 110, 111, 112, 113, 114, 115, 116, 117, 118, 119, 120, 121, 122, 123, 124, 125, 126, 127, 128, 129, 130, 131, 132, 133, 134, 135, 136, 137, 138, 139, 140, 141, 142, 143, 144, 145, 146, 147, 148, 149, 150, 151, 152, 153, 154, 155],
      "AcquisitionTime": ["184458.735000", "184500.735000", "184502.735000", "184504.735000", "184506.735000", "184508.735000", "184510.735000", "184512.735000", "184514.735000", "184516.735000", "184518.735000", "184520.735000", "184522.735000", "184524.735000", "184526.735000", "184528.735000", "184530.735000", "184532.735000", "184534.735000", "184536.735000", "184538.735000", "184540.735000", "184542.735000", "184544.735000", "184546.735000", "184548.735000", "184550.735000", "184552.735000", "184554.735000", "184556.735000", "184558.735000", "184600.735000", "184602.735000", "184604.735000", "184606.735000", "184608.735000", "184610.735000", "184612.735000", "184614.735000", "184616.735000", "184618.735000", "184620.735000", "184622.735000", "184624.735000", "184626.735000", "184628.735000", "184630.735000", "184632.735000", "184634.735000", "184636.735000", "184638.735000", "184640.735000", "184642.735000", "184644.735000", "184646.735000", "184648.735000", "184650.735000", "184652.735000", "184654.735000", "184656.735000", "184658.735000", "184700.735000", "184702.735000", "184704.735000", "184706.735000", "184708.735000", "184710.735000", "184712.735000", "184714.735000", "184716.735000", "184718.735000", "184720.735000", "184722.735000", "184724.735000", "184726.735000", "184728.735000", "184730.735000", "184732.735000", "184734.735000", "184736.735000", "184738.735000", "184740.735000", "184742.735000", "184744.735000", "184746.735000", "184748.735000", "184750.735000", "184752.735000", "184754.735000", "184756.735000", "184758.735000", "184800.735000", "184802.735000", "184804.735000", "184806.735000", "184808.735000", "184810.735000", "184812.735000", "184814.735000", "184816.735000", "184818.735000", "184820.735000", "184822.735000", "184824.735000", "184826.735000", "184828.735000", "184830.735000", "184832.735000", "184834.735000", "184836.735000", "184838.735000", "184840.735000", "184842.735000", "184844.735000", "184846.735000", "184848.735000", "184850.735000", "184852.735000", "184854.735000", "184856.735000", "184858.735000", "184900.735000", "184902.735000", "184904.735000", "184906.735000", "184908.735000", "184910.735000", "184912.735000", "184914.735000", "184916.735000", "184918.735000", "184920.735000", "184922.735000", "184924.735000", "184926.735000", "184928.735000", "184930.735000", "184932.735000", "184934.735000", "184936.735000", "184938.735000", "184940.735000", "184942.735000", "184944.735000", "184946.735000", "184948.735000", "184950.735000", "184952.735000", "184954.735000", "184956.735000", "184958.735000", "185000.735000", "185002.735000", "185004.735000", "185006.735000"],
      "ContentTime": ["184502.537000", "184502.540000", "184542.530000", "184542.534000", "184542.536000", "184542.539000", "184542.542000", "184542.545000", "184542.547000", "184542.550000", "184542.553000", "184542.555000", "184542.558000", "184542.561000", "184542.564000", "184542.567000", "184542.570000", "184542.573000", "184542.575000", "184542.578000", "184542.581000", "184542.583000", "184622.530000", "184622.533000", "184622.536000", "184622.539000", "184622.542000", "184622.545000", "184622.548000", "184622.550000", "184622.553000", "184622.556000", "184622.559000", "184622.562000", "184622.565000", "184622.567000", "184622.570000", "184622.573000", "184622.576000", "184622.578000", "184622.581000", "184622.584000", "184702.530000", "184702.534000", "184702.536000", "184702.539000", "184702.542000", "184702.545000", "184702.547000", "184702.550000", "184702.553000", "184702.556000", "184702.558000", "184702.561000", "184702.564000", "184702.567000", "184702.569000", "184702.572000", "184702.575000", "184702.578000", "184702.581000", "184702.584000", "184742.530000", "184742.533000", "184742.536000", "184742.539000", "184742.541000", "184742.544000", "184742.547000", "184742.550000", "184742.553000", "184742.556000", "184742.559000", "184742.561000", "184742.564000", "184742.567000", "184742.569000", "184742.572000", "184742.575000", "184742.578000", "184742.580000", "184742.583000", "184822.530000", "184822.533000", "184822.536000", "184822.539000", "184822.542000", "184822.545000", "184822.547000", "184822.550000", "184822.553000", "184822.556000", "184822.559000", "184822.562000", "184822.565000", "184822.567000", "184822.570000", "184822.573000", "184822.576000", "184822.579000", "184822.582000", "184822.584000", "184902.530000", "184902.533000", "184902.536000", "184902.539000", "184902.542000", "184902.545000", "184902.547000", "184902.550000", "184902.553000", "184902.556000", "184902.559000", "184902.561000", "184902.564000", "184902.567000", "184902.570000", "184902.573000", "184902.576000", "184902.579000", "184902.581000", "184902.584000", "184942.530000", "184942.534000", "184942.537000", "184942.539000", "184942.542000", "184942.545000", "184942.547000", "184942.550000", "184942.553000", "184942.556000", "184942.558000", "184942.561000", "184942.564000", "184942.566000", "184942.569000", "184942.572000", "184942.575000", "184942.578000", "184942.582000", "184942.585000", "185007.295000", "185007.298000", "185007.301000", "185007.304000", "185007.307000", "185007.310000", "185007.313000", "185007.315000", "185007.318000", "185007.321000", "185007.324000", "185007.327000", "185007.337000"],
      "InstanceCreationTime": ["184502.537000", "184502.540000", "184542.530000", "184542.534000", "184542.536000", "184542.539000", "184542.542000", "184542.545000", "184542.547000", "184542.550000", "184542.553000", "184542.555000", "184542.558000", "184542.561000", "184542.564000", "184542.567000", "184542.570000", "184542.573000", "184542.575000", "184542.578000", "184542.581000", "184542.583000", "184622.530000", "184622.533000", "184622.536000", "184622.539000", "184622.542000", "184622.545000", "184622.548000", "184622.550000", "184622.553000", "184622.556000", "184622.559000", "184622.562000", "184622.565000", "184622.567000", "184622.570000", "184622.573000", "184622.576000", "184622.578000", "184622.581000", "184622.584000", "184702.530000", "184702.534000", "184702.536000", "184702.539000", "184702.542000", "184702.545000", "184702.547000", "184702.550000", "184702.553000", "184702.556000", "184702.558000", "184702.561000", "184702.564000", "184702.567000", "184702.569000", "184702.572000", "184702.575000", "184702.578000", "184702.581000", "184702.584000", "184742.530000", "184742.533000", "184742.536000", "184742.539000", "184742.541000", "184742.544000", "184742.547000", "184742.550000", "184742.553000", "184742.556000", "184742.559000", "184742.561000", "184742.564000", "184742.567000", "184742.569000", "184742.572000", "184742.575000", "184742.578000", "184742.580000", "184742.583000", "184822.530000", "184822.533000", "184822.536000", "184822.539000", "184822.542000", "184822.545000", "184822.547000", "184822.550000", "184822.553000", "184822.556000", "184822.559000", "184822.562000", "184822.565000", "184822.567000", "184822.570000", "184822.573000", "184822.576000", "184822.579000", "184822.582000", "184822.584000", "184902.530000", "184902.533000", "184902.536000", "184902.539000", "184902.542000", "184902.545000", "184902.547000", "184902.550000", "184902.553000", "184902.556000", "184902.559000", "184902.561000", "184902.564000", "184902.567000", "184902.570000", "184902.573000", "184902.576000", "184902.579000", "184902.581000", "184902.584000", "184942.530000", "184942.534000", "184942.537000", "184942.539000", "184942.542000", "184942.545000", "184942.547000", "184942.550000", "184942.553000", "184942.556000", "184942.558000", "184942.561000", "184942.564000", "184942.566000", "184942.569000", "184942.572000", "184942.575000", "184942.578000", "184942.582000", "184942.585000", "185007.295000", "185007.298000", "185007.301000", "185007.304000", "185007.307000", "185007.310000", "185007.313000", "185007.315000", "185007.318000", "185007.321000", "185007.324000", "185007.327000", "185007.337000"],
      "InstanceNumber": [1, 2, 3, 4, 5, 6, 7, 8, 9, 10, 11, 12, 13, 14, 15, 16, 17, 18, 19, 20, 21, 22, 23, 24, 25, 26, 27, 28, 29, 30, 31, 32, 33, 34, 35, 36, 37, 38, 39, 40, 41, 42, 43, 44, 45, 46, 47, 48, 49, 50, 51, 52, 53, 54, 55, 56, 57, 58, 59, 60, 61, 62, 63, 64, 65, 66, 67, 68, 69, 70, 71, 72, 73, 74, 75, 76, 77, 78, 79, 80, 81, 82, 83, 84, 85, 86, 87, 88, 89, 90, 91, 92, 93, 94, 95, 96, 97, 98, 99, 100, 101, 102, 103, 104, 105, 106, 107, 108, 109, 110, 111, 112, 113, 114, 115, 116, 117, 118, 119, 120, 121, 122, 123, 124, 125, 126, 127, 128, 129, 130, 131, 132, 133, 134, 135, 136, 137, 138, 139, 140, 141, 142, 143, 144, 145, 146, 147, 148, 149, 150, 151, 152, 153, 154, 155],
      "LargestImagePixelValue": [940, 836, 834, 922, 844, 853, 832, 832, 838, 919, 898, 829, 825, 980, 832, 887, 866, 947, 828, 830, 945, 845, 883, 829, 972, 848, 950, 866, 911, 842, 854, 919, 960, 854, 845, 854, 828, 849, 902, 990, 917, 948, 866, 860, 834, 826, 1010, 920, 923, 820, 928, 847, 851, 876, 864, 870, 872, 875, 906, 892, 847, 890, 846, 844, 902, 888, 943, 846, 880, 956, 888, 894, 890, 855, 852, 904, 862, 982, 964, 892, 908, 891, 838, 854, 823, 949, 1033, 830, 1026, 993, 933, 951, 943, 938, 942, 932, 923, 898, 839, 935, 844, 1030, 842, 971, 931, 974, 1006, 867, 854, 882, 825, 1110, 911, 877, 952, 854, 862, 984, 885, 930, 894, 935, 943, 931, 850, 863, 857, 1013, 856, 991, 916, 981, 859, 933, 932, 909, 916, 902, 846, 1019, 892, 945, 894, 1001, 863, 901, 995, 881, 874, 985, 922, 1027, 849, 999, 1022],
      "WindowCenter": [480.0, 478.0, 478.0, 479.0, 478.0, 478.0, 478.0, 479.0, 480.0, 481.0, 481.0, 480.0, 480.0, 482.0, 480.0, 481.0, 480.0, 482.0, 481.0, 482.0, 483.0, 481.0, 481.0, 480.0, 482.0, 480.0, 482.0, 480.0, 481.0, 480.0, 479.0, 481.0, 482.0, 481.0, 480.0, 479.0, 480.0, 481.0, 482.0, 483.0, 481.0, 480.0, 479.0, 480.0, 479.0, 481.0, 483.0, 481.0, 480.0, 478.0, 479.0, 478.0, 479.0, 480.0, 480.0, 480.0, 480.0, 479.0, 479.0, 479.0, 480.0, 480.0, 480.0, 480.0, 481.0, 480.0, 481.0, 479.0, 479.0, 481.0, 479.0, 481.0, 481.0, 481.0, 481.0, 481.0, 482.0, 483.0, 482.0, 481.0, 481.0, 481.0, 480.0, 480.0, 480.0, 481.0, 482.0, 480.0, 482.0, 482.0, 481.0, 481.0, 481.0, 481.0, 481.0, 481.0, 481.0, 481.0, 480.0, 482.0, 480.0, 483.0, 480.0, 481.0, 480.0, 481.0, 480.0, 479.0, 479.0, 481.0, 481.0, 485.0, 481.0, 479.0, 480.0, 478.0, 478.0, 480.0, 479.0, 480.0, 480.0, 481.0, 481.0, 480.0, 479.0, 479.0, 479.0, 481.0, 479.0, 481.0, 481.0, 481.0, 480.0, 482.0, 482.0, 481.0, 481.0, 482.0, 481.0, 483.0, 481.0, 482.0, 482.0, 482.0, 479.0, 480.0, 483.0, 481.0, 480.0, 482.0, 481.0, 482.0, 479.0, 482.0, 481.0],
      "WindowWidth": [1001.0, 996.0, 996.0, 998.0, 996.0, 996.0, 996.0, 998.0, 999.0, 1002.0, 1001.0, 1000.0, 1001.0, 1003.0, 1001.0, 1001.0, 1000.0, 1003.0, 1002.0, 1003.0, 1004.0, 1002.0, 1002.0, 1001.0, 1004.0, 1000.0, 1003.0, 1000.0, 1002.0, 999.0, 999.0, 1002.0, 1003.0, 1001.0, 1000.0, 999.0, 999.0, 1001.0, 1003.0, 1004.0, 1001.0, 1000.0, 998.0, 1000.0, 999.0, 1002.0, 1005.0, 1001.0, 999.0, 997.0, 998.0, 996.0, 997.0, 999.0, 1000.0, 999.0, 999.0, 998.0, 998.0, 998.0, 999.0, 1000.0, 1000.0, 1001.0, 1001.0, 1000.0, 1000.0, 998.0, 999.0, 1001.0, 999.0, 1000.0, 1001.0, 1002.0, 1002.0, 1002.0, 1003.0, 1005.0, 1003.0, 1001.0, 1001.0, 1001.0, 1000.0, 1000.0, 1000.0, 1002.0, 1003.0, 999.0, 1003.0, 1003.0, 1002.0, 1001.0, 1001.0, 1001.0, 1001.0, 1001.0, 1001.0, 1001.0, 1000.0, 1003.0, 1000.0, 1004.0, 999.0, 1002.0, 1000.0, 1001.0, 1000.0, 997.0, 999.0, 1001.0, 1001.0, 1008.0, 1002.0, 998.0, 999.0, 996.0, 997.0, 999.0, 998.0, 999.0, 999.0, 1001.0, 1001.0, 1000.0, 998.0, 998.0, 998.0, 1001.0, 998.0, 1001.0, 1000.0, 1001.0, 1000.0, 1002.0, 1003.0, 1002.0, 1002.0, 1003.0, 1001.0, 1004.0, 1001.0, 1002.0, 1003.0, 1003.0, 998.0, 1000.0, 1004.0, 1001.0, 1000.0, 1002.0, 1001.0, 1003.0, 999.0, 1002.0, 1000.0]
    },
    "slices": {}
  }
}