{
  "AcquisitionMatrixPE": 64,
  "AcquisitionNumber": 1,
  "AcquisitionTime": "19:53:51.097500",
  "BandwidthPerPixelPhaseEncode": 40.064,
  "BaseResolution": 64,
  "BodyPartExamined": "BRAIN",
  "ConsistencyInfo": "N4_VD13D_LATEST_20130810",
  "ConversionSoftware": "dcm2niix",
  "ConversionSoftwareVersion": "v1.0.20191031",
  "DerivedVendorReportedEchoSpacing": 0.000780002,
  "DeviceSerialNumber": "67007",
  "DwellTime": 5.3e-06,
  "EchoTime": 0.03,
  "EchoTrainLength": 31,
  "EffectiveEchoSpacing": 0.000390001,
  "FlipAngle": 75,
  "ImageOrientationPatientDICOM": [0.999133, 0.0414006, 0.00450159, -0.0401293, 0.98603, -0.161662],
  "ImageType": [
    "ORIGINAL",
    "PRIMARY",
    "M",
    "ND",
    "NORM",
    "MOSAIC"
],
  "ImagingFrequency": 123.211,
  "InPlanePhaseEncodingDirectionDICOM": "ROW",
  "InstitutionAddress": "Perth_Drive_100_London_Ontario_CA_N6A_5K8",
  "InstitutionName": "Robarts_Research_Institute",
  "InstitutionalDepartmentName": "CFMM",
  "MRAcquisitionType": "2D",
  "MagneticFieldStrength": 3,
  "Manufacturer": "Siemens",
  "ManufacturersModelName": "Prisma_fit",
  "Modality": "MR",
  "ParallelReductionFactorInPlane": 2,
  "PartialFourier": 1,
  "PatientPosition": "HFS",
  "PercentPhaseFOV": 100,
  "PhaseEncodingDirection": "i",
  "PhaseEncodingSteps": 63,
  "PhaseResolution": 1,
  "PixelBandwidth": 1475,
  "ProcedureStepDescription": "Owen_Naci",
  "ProtocolName": "taken_deep_sed",
  "PulseSequenceDetails": "%SiemensSeq%_ep2d_bold",
  "ReceiveCoilActiveElements": "HEA;HEP",
  "ReceiveCoilName": "Head_32",
  "ReconMatrixPE": 64,
  "RefLinesPE": 24,
  "RepetitionTime": 2,
  "SAR": 0.120878,
  "ScanOptions": "FS",
  "ScanningSequence": "EP",
  "SequenceName": "_epfid2d1_64",
  "SequenceVariant": "SK",
  "SeriesDescription": "taken_deep_sed",
  "SeriesNumber": 11,
  "ShimSetting": [5262, -6210, -3765, 402, 28, -118, 122, -6],
  "SliceThickness": 3,
  "SliceTiming": [1.92, 1.86, 1.8, 1.74, 1.68, 1.62, 1.56, 1.5, 1.44, 1.38, 1.32, 1.26, 1.2, 1.14, 1.08, 1.02, 0.96, 0.9, 0.84, 0.78, 0.72, 0.66, 0.6, 0.54, 0.48, 0.42, 0.36, 0.3, 0.24, 0.18, 0.12, 0.06, 0],
  "SoftwareVersions": "syngo_MR_D13D",
  "SpacingBetweenSlices": 3.75,
  "StationName": "AWP67007",
  "TaskName": "audiodeep",
  "TotalReadoutTime": 0.0245701,
  "TxRefAmp": 322.304,
  "dcmmeta_affine": [
    [-2.9973974227905273, -0.12038791924715042, 0.04174353927373886, 101.47430419921875],
    [-0.12420179694890976, 2.958089828491211, -0.605029284954071, -64.37215423583984],
    [0.01350477896630764, 0.4849861264228821, 3.700634479522705, -41.04717254638672],
    [0.0, 0.0, 0.0, 1.0]
],
  "dcmmeta_reorient_transform": [
    [0.0, -1.0, 0.0, 63.0],
    [1.0, 0.0, 0.0, 0.0],
    [0.0, 0.0, 1.0, 0.0],
    [0.0, 0.0, 0.0, 1.0]
],
  "dcmmeta_shape": [64, 64, 33, 155],
  "dcmmeta_slice_dim": 2,
  "dcmmeta_version": 0.6,
  "global": {
    "const": {
      "AcquisitionMatrix": [0, 64, 64, 0],
      "AngioFlag": "N",
      "BitsAllocated": 16,
      "BitsStored": 12,
      "BodyPartExamined": "BRAIN",
      "Columns": 384,
      "EchoNumbers": 1,
      "EchoTime": 30.0,
      "EchoTrainLength": 31,
      "FlipAngle": 75.0,
      "HighBit": 11,
      "ImageOrientationPatient": [0.99913248669789, 0.04140060004933, 0.0045015931021, -0.0401293067298, 0.9860299298234, -0.1616620432688],
      "ImagePositionPatient": [-554.21138984718, -615.15415314492, 64.943971145387],
      "ImageType": [
        "ORIGINAL",
        "PRIMARY",
        "M",
        "ND",
        "NORM",
        "MOSAIC"
],
      "ImagedNucleus": "1H",
      "ImagingFrequency": 123.211186,
      "InPlanePhaseEncodingDirection": "ROW",
      "MRAcquisitionType": "2D",
      "MagneticFieldStrength": 3.0,
      "Manufacturer": "SIEMENS",
      "ManufacturerModelName": "Prisma_fit",
      "Modality": "MR",
      "NumberOfAverages": 1.0,
      "NumberOfPhaseEncodingSteps": 63,
      "PercentPhaseFieldOfView": 100.0,
      "PercentSampling": 100.0,
      "PerformedProcedureStepStartTime": "183209.631000",
      "PhotometricInterpretation": "MONOCHROME2",
      "PixelBandwidth": 1475.0,
      "PixelRepresentation": 0,
      "PixelSpacing": [3.0, 3.0],
      "ProtocolName": "taken_deep sed",
      "RepetitionTime": 2000.0,
      "Rows": 384,
      "SAR": 0.12087839923134,
      "SamplesPerPixel": 1,
      "ScanOptions": "FS",
      "ScanningSequence": "EP",
      "SequenceName": "*epfid2d1_64",
      "SequenceVariant": "SK",
      "SeriesDescription": "taken_deep sed",
      "SeriesNumber": 11,
      "SeriesTime": "195407.820000",
      "SliceLocation": -28.991371898816,
      "SliceThickness": 3.0,
      "SmallestImagePixelValue": 0,
      "SoftwareVersions": "syngo MR D13D",
      "SpacingBetweenSlices": 3.7499999177386,
      "SpecificCharacterSet": "ISO_IR 100",
      "StudyID": "1",
      "StudyTime": "183209.576000",
      "TimeOfLastCalibration": ["123723.000000", "123723.000000"],
      "TransmitCoilName": "Body",
      "VariableFlipAngleFlag": "N",
      "WindowCenterWidthExplanation": "Algo1",
      "dBdt": 0.0},
    "slices": {}
  },
  "time": {
    "samples": {
      "AcquisitionNumber": [1, 2, 3, 4, 5, 6, 7, 8, 9, 10, 11, 12, 13, 14, 15, 16, 17, 18, 19, 20, 21, 22, 23, 24, 25, 26, 27, 28, 29, 30, 31, 32, 33, 34, 35, 36, 37, 38, 39, 40, 41, 42, 43, 44, 45, 46, 47, 48, 49, 50, 51, 52, 53, 54, 55, 56, 57, 58, 59, 60, 61, 62, 63, 64, 65, 66, 67, 68, 69, 70, 71, 72, 73, 74, 75, 76, 77, 78, 79, 80, 81, 82, 83, 84, 85, 86, 87, 88, 89, 90, 91, 92, 93, 94, 95, 96, 97, 98, 99, 100, 101, 102, 103, 104, 105, 106, 107, 108, 109, 110, 111, 112, 113, 114, 115, 116, 117, 118, 119, 120, 121, 122, 123, 124, 125, 126, 127, 128, 129, 130, 131, 132, 133, 134, 135, 136, 137, 138, 139, 140, 141, 142, 143, 144, 145, 146, 147, 148, 149, 150, 151, 152, 153, 154, 155],
      "AcquisitionTime": ["195351.097500", "195353.097500", "195355.097500", "195357.097500", "195359.097500", "195401.097500", "195403.097500", "195405.097500", "195407.097500", "195409.097500", "195411.097500", "195413.097500", "195415.097500", "195417.097500", "195419.097500", "195421.097500", "195423.097500", "195425.097500", "195427.097500", "195429.097500", "195431.097500", "195433.097500", "195435.097500", "195437.097500", "195439.097500", "195441.097500", "195443.097500", "195445.097500", "195447.097500", "195449.097500", "195451.097500", "195453.097500", "195455.097500", "195457.097500", "195459.097500", "195501.097500", "195503.097500", "195505.097500", "195507.097500", "195509.097500", "195511.097500", "195513.097500", "195515.097500", "195517.097500", "195519.097500", "195521.097500", "195523.097500", "195525.097500", "195527.097500", "195529.097500", "195531.097500", "195533.097500", "195535.097500", "195537.097500", "195539.097500", "195541.097500", "195543.097500", "195545.097500", "195547.097500", "195549.097500", "195551.097500", "195553.097500", "195555.097500", "195557.097500", "195559.097500", "195601.097500", "195603.097500", "195605.097500", "195607.097500", "195609.097500", "195611.097500", "195613.097500", "195615.097500", "195617.097500", "195619.097500", "195621.097500", "195623.097500", "195625.097500", "195627.097500", "195629.097500", "195631.097500", "195633.097500", "195635.097500", "195637.097500", "195639.097500", "195641.097500", "195643.097500", "195645.097500", "195647.097500", "195649.097500", "195651.097500", "195653.097500", "195655.097500", "195657.097500", "195659.097500", "195701.097500", "195703.097500", "195705.097500", "195707.097500", "195709.097500", "195711.097500", "195713.097500", "195715.097500", "195717.097500", "195719.097500", "195721.097500", "195723.097500", "195725.097500", "195727.097500", "195729.097500", "195731.097500", "195733.097500", "195735.097500", "195737.097500", "195739.097500", "195741.097500", "195743.097500", "195745.097500", "195747.097500", "195749.097500", "195751.097500", "195753.097500", "195755.097500", "195757.097500", "195759.097500", "195801.097500", "195803.097500", "195805.097500", "195807.097500", "195809.097500", "195811.097500", "195813.100000", "195815.100000", "195817.100000", "195819.100000", "195821.100000", "195823.100000", "195825.100000", "195827.100000", "195829.100000", "195831.100000", "195833.100000", "195835.100000", "195837.100000", "195839.100000", "195841.100000", "195843.100000", "195845.100000", "195847.100000", "195849.100000", "195851.100000", "195853.100000", "195855.100000", "195857.100000", "195859.100000"],
      "ContentTime": ["195407.824000", "195407.828000", "195407.831000", "195407.833000", "195407.836000", "195407.839000", "195407.842000", "195407.845000", "195407.847000", "195447.817000", "195447.820000", "195447.823000", "195447.826000", "195447.828000", "195447.831000", "195447.834000", "195447.836000", "195447.839000", "195447.842000", "195447.844000", "195447.847000", "195447.850000", "195447.852000", "195447.855000", "195447.858000", "195447.861000", "195447.863000", "195447.866000", "195447.869000", "195527.819000", "195527.822000", "195527.825000", "195527.828000", "195527.831000", "195527.833000", "195527.836000", "195527.839000", "195527.842000", "195527.845000", "195527.853000", "195527.856000", "195527.858000", "195527.861000", "195527.864000", "195527.867000", "195527.869000", "195527.872000", "195527.875000", "195527.878000", "195607.818000", "195607.821000", "195607.824000", "195607.827000", "195607.829000", "195607.832000", "195607.835000", "195607.837000", "195607.840000", "195607.843000", "195607.846000", "195607.849000", "195607.851000", "195607.854000", "195607.857000", "195607.860000", "195607.862000", "195607.865000", "195607.868000", "195607.871000", "195647.817000", "195647.820000", "195647.823000", "195647.826000", "195647.829000", "195647.831000", "195647.834000", "195647.837000", "195647.840000", "195647.843000", "195647.846000", "195647.849000", "195647.852000", "195647.854000", "195647.857000", "195647.860000", "195647.866000", "195647.869000", "195647.872000", "195647.875000", "195727.817000", "195727.820000", "195727.823000", "195727.826000", "195727.828000", "195727.831000", "195727.833000", "195727.836000", "195727.839000", "195727.841000", "195727.844000", "195727.847000", "195727.849000", "195727.852000", "195727.855000", "195727.857000", "195727.860000", "195727.863000", "195727.865000", "195727.868000", "195807.819000", "195807.823000", "195807.825000", "195807.828000", "195807.831000", "195807.833000", "195807.836000", "195807.839000", "195807.842000", "195807.845000", "195807.847000", "195807.850000", "195807.853000", "195807.856000", "195807.859000", "195807.861000", "195807.864000", "195807.867000", "195807.870000", "195807.873000", "195847.820000", "195847.824000", "195847.826000", "195847.829000", "195847.832000", "195847.834000", "195847.837000", "195847.840000", "195847.843000", "195847.846000", "195847.848000", "195847.851000", "195847.854000", "195847.857000", "195847.859000", "195847.862000", "195847.865000", "195847.868000", "195847.871000", "195847.874000", "195859.590000", "195859.594000", "195859.597000", "195859.600000", "195859.603000", "195859.606000"],
      "InstanceCreationTime": ["195407.824000", "195407.828000", "195407.831000", "195407.833000", "195407.836000", "195407.839000", "195407.842000", "195407.845000", "195407.847000", "195447.817000", "195447.820000", "195447.823000", "195447.826000", "195447.828000", "195447.831000", "195447.834000", "195447.836000", "195447.839000", "195447.842000", "195447.844000", "195447.847000", "195447.850000", "195447.852000", "195447.855000", "195447.858000", "195447.861000", "195447.863000", "195447.866000", "195447.869000", "195527.819000", "195527.822000", "195527.825000", "195527.828000", "195527.831000", "195527.833000", "195527.836000", "195527.839000", "195527.842000", "195527.845000", "195527.853000", "195527.856000", "195527.858000", "195527.861000", "195527.864000", "195527.867000", "195527.869000", "195527.872000", "195527.875000", "195527.878000", "195607.818000", "195607.821000", "195607.824000", "195607.827000", "195607.829000", "195607.832000", "195607.835000", "195607.837000", "195607.840000", "195607.843000", "195607.846000", "195607.849000", "195607.851000", "195607.854000", "195607.857000", "195607.860000", "195607.862000", "195607.865000", "195607.868000", "195607.871000", "195647.817000", "195647.820000", "195647.823000", "195647.826000", "195647.829000", "195647.831000", "195647.834000", "195647.837000", "195647.840000", "195647.843000", "195647.846000", "195647.849000", "195647.852000", "195647.854000", "195647.857000", "195647.860000", "195647.866000", "195647.869000", "195647.872000", "195647.875000", "195727.817000", "195727.820000", "195727.823000", "195727.826000", "195727.828000", "195727.831000", "195727.833000", "195727.836000", "195727.839000", "195727.841000", "195727.844000", "195727.847000", "195727.849000", "195727.852000", "195727.855000", "195727.857000", "195727.860000", "195727.863000", "195727.865000", "195727.868000", "195807.819000", "195807.823000", "195807.825000", "195807.828000", "195807.831000", "195807.833000", "195807.836000", "195807.839000", "195807.842000", "195807.845000", "195807.847000", "195807.850000", "195807.853000", "195807.856000", "195807.859000", "195807.861000", "195807.864000", "195807.867000", "195807.870000", "195807.873000", "195847.820000", "195847.824000", "195847.826000", "195847.829000", "195847.832000", "195847.834000", "195847.837000", "195847.840000", "195847.843000", "195847.846000", "195847.848000", "195847.851000", "195847.854000", "195847.857000", "195847.859000", "195847.862000", "195847.865000", "195847.868000", "195847.871000", "195847.874000", "195859.590000", "195859.594000", "195859.597000", "195859.600000", "195859.603000", "195859.606000"],
      "InstanceNumber": [1, 2, 3, 4, 5, 6, 7, 8, 9, 10, 11, 12, 13, 14, 15, 16, 17, 18, 19, 20, 21, 22, 23, 24, 25, 26, 27, 28, 29, 30, 31, 32, 33, 34, 35, 36, 37, 38, 39, 40, 41, 42, 43, 44, 45, 46, 47, 48, 49, 50, 51, 52, 53, 54, 55, 56, 57, 58, 59, 60, 61, 62, 63, 64, 65, 66, 67, 68, 69, 70, 71, 72, 73, 74, 75, 76, 77, 78, 79, 80, 81, 82, 83, 84, 85, 86, 87, 88, 89, 90, 91, 92, 93, 94, 95, 96, 97, 98, 99, 100, 101, 102, 103, 104, 105, 106, 107, 108, 109, 110, 111, 112, 113, 114, 115, 116, 117, 118, 119, 120, 121, 122, 123, 124, 125, 126, 127, 128, 129, 130, 131, 132, 133, 134, 135, 136, 137, 138, 139, 140, 141, 142, 143, 144, 145, 146, 147, 148, 149, 150, 151, 152, 153, 154, 155],
      "LargestImagePixelValue": [1104, 941, 1151, 1030, 1011, 994, 1107, 905, 968, 1020, 1165, 1119, 890, 1146, 906, 1195, 902, 1099, 962, 942, 941, 915, 1089, 914, 1138, 920, 1127, 997, 1147, 1054, 1194, 987, 1198, 1038, 1142, 1119, 1113, 1067, 1151, 1126, 1101, 1170, 1082, 1067, 1009, 1077, 907, 1109, 908, 1106, 921, 1142, 925, 1043, 906, 981, 1055, 1026, 1137, 1052, 1012, 972, 921, 986, 1020, 901, 900, 1013, 905, 1050, 961, 1038, 945, 1093, 900, 1021, 967, 1054, 917, 1123, 1152, 1185, 1019, 981, 895, 1065, 886, 1087, 886, 1075, 921, 1054, 1013, 1017, 966, 987, 1000, 1099, 1045, 1050, 1127, 940, 1132, 970, 1175, 1002, 1228, 993, 1212, 1047, 1169, 887, 1129, 1035, 1094, 959, 1055, 957, 974, 962, 1051, 929, 1017, 942, 940, 941, 920, 889, 942, 889, 946, 887, 894, 922, 891, 933, 911, 938, 918, 905, 951, 1070, 1048, 964, 1125, 975, 1199, 982, 1165, 952, 1155, 959, 1152, 1124, 1034],
      "WindowCenter": [498.0, 495.0, 496.0, 495.0, 494.0, 494.0, 495.0, 493.0, 495.0, 497.0, 498.0, 497.0, 494.0, 496.0, 493.0, 495.0, 492.0, 494.0, 492.0, 492.0, 493.0, 492.0, 494.0, 492.0, 494.0, 492.0, 495.0, 494.0, 496.0, 494.0, 496.0, 494.0, 496.0, 494.0, 495.0, 495.0, 495.0, 494.0, 495.0, 495.0, 494.0, 496.0, 494.0, 495.0, 493.0, 494.0, 492.0, 494.0, 492.0, 495.0, 493.0, 496.0, 492.0, 495.0, 494.0, 495.0, 496.0, 495.0, 497.0, 495.0, 494.0, 495.0, 493.0, 493.0, 494.0, 495.0, 496.0, 497.0, 496.0, 498.0, 497.0, 497.0, 495.0, 497.0, 494.0, 496.0, 496.0, 499.0, 499.0, 499.0, 500.0, 499.0, 495.0, 494.0, 492.0, 494.0, 492.0, 494.0, 492.0, 494.0, 493.0, 495.0, 494.0, 494.0, 494.0, 494.0, 493.0, 494.0, 493.0, 493.0, 494.0, 492.0, 495.0, 493.0, 495.0, 493.0, 496.0, 493.0, 496.0, 494.0, 495.0, 493.0, 495.0, 495.0, 495.0, 494.0, 495.0, 494.0, 494.0, 494.0, 494.0, 493.0, 494.0, 494.0, 494.0, 494.0, 494.0, 493.0, 494.0, 493.0, 494.0, 494.0, 495.0, 494.0, 495.0, 495.0, 495.0, 494.0, 494.0, 494.0, 495.0, 497.0, 497.0, 496.0, 498.0, 497.0, 499.0, 496.0, 498.0, 496.0, 498.0, 496.0, 499.0, 498.0, 498.0],
      "WindowWidth": [1033.0, 1028.0, 1029.0, 1028.0, 1026.0, 1026.0, 1027.0, 1025.0, 1029.0, 1031.0, 1032.0, 1031.0, 1026.0, 1029.0, 1024.0, 1027.0, 1023.0, 1025.0, 1023.0, 1022.0, 1024.0, 1022.0, 1026.0, 1022.0, 1026.0, 1023.0, 1027.0, 1025.0, 1028.0, 1026.0, 1028.0, 1025.0, 1028.0, 1026.0, 1027.0, 1027.0, 1026.0, 1026.0, 1027.0, 1028.0, 1026.0, 1028.0, 1025.0, 1027.0, 1023.0, 1026.0, 1022.0, 1026.0, 1022.0, 1027.0, 1023.0, 1029.0, 1023.0, 1027.0, 1026.0, 1028.0, 1029.0, 1028.0, 1030.0, 1028.0, 1026.0, 1028.0, 1024.0, 1024.0, 1026.0, 1029.0, 1029.0, 1032.0, 1029.0, 1033.0, 1032.0, 1030.0, 1028.0, 1031.0, 1026.0, 1029.0, 1030.0, 1034.0, 1036.0, 1035.0, 1036.0, 1035.0, 1028.0, 1025.0, 1022.0, 1025.0, 1022.0, 1025.0, 1023.0, 1026.0, 1025.0, 1026.0, 1026.0, 1026.0, 1025.0, 1025.0, 1025.0, 1025.0, 1024.0, 1024.0, 1026.0, 1023.0, 1027.0, 1024.0, 1027.0, 1024.0, 1028.0, 1024.0, 1029.0, 1025.0, 1028.0, 1023.0, 1028.0, 1027.0, 1028.0, 1026.0, 1027.0, 1027.0, 1027.0, 1025.0, 1026.0, 1024.0, 1026.0, 1026.0, 1026.0, 1025.0, 1026.0, 1024.0, 1026.0, 1025.0, 1027.0, 1026.0, 1028.0, 1027.0, 1028.0, 1027.0, 1028.0, 1027.0, 1027.0, 1027.0, 1029.0, 1031.0, 1031.0, 1029.0, 1033.0, 1030.0, 1034.0, 1030.0, 1033.0, 1029.0, 1033.0, 1029.0, 1035.0, 1033.0, 1033.0]
    },
    "slices": {}
  }
}