{
  "AcquisitionMatrixPE": 64,
  "AcquisitionNumber": 1,
  "AcquisitionTime": "19:56:25.450000",
  "BandwidthPerPixelPhaseEncode": 40.064,
  "BaseResolution": 64,
  "BodyPartExamined": "BRAIN",
  "ConsistencyInfo": "N4_VD13D_LATEST_20130810",
  "ConversionSoftware": "dcm2niix",
  "ConversionSoftwareVersion": "v1.0.20191031",
  "DerivedVendorReportedEchoSpacing": 0.000780002,
  "DeviceSerialNumber": "67007",
  "DwellTime": 5.3e-06,
  "EchoTime": 0.03,
  "EchoTrainLength": 31,
  "EffectiveEchoSpacing": 0.000390001,
  "FlipAngle": 75,
  "ImageOrientationPatientDICOM": [0.999945, -0.00811917, 0.00659954, 0.00872639, 0.995159, -0.0978935],
  "ImageType": [
    "ORIGINAL",
    "PRIMARY",
    "M",
    "ND",
    "NORM",
    "MOSAIC"
],
  "ImagingFrequency": 123.211,
  "InPlanePhaseEncodingDirectionDICOM": "ROW",
  "InstitutionAddress": "Perth_Drive_100_London_Ontario_CA_N6A_5K8",
  "InstitutionName": "Robarts_Research_Institute",
  "InstitutionalDepartmentName": "CFMM",
  "MRAcquisitionType": "2D",
  "MagneticFieldStrength": 3,
  "Manufacturer": "Siemens",
  "ManufacturersModelName": "Prisma_fit",
  "Modality": "MR",
  "ParallelReductionFactorInPlane": 2,
  "PartialFourier": 1,
  "PatientPosition": "HFS",
  "PercentPhaseFOV": 100,
  "PhaseEncodingDirection": "i",
  "PhaseEncodingSteps": 63,
  "PhaseResolution": 1,
  "PixelBandwidth": 1475,
  "ProcedureStepDescription": "Owen_Naci",
  "ProtocolName": "taken_recovery",
  "PulseSequenceDetails": "%SiemensSeq%_ep2d_bold",
  "ReceiveCoilActiveElements": "HEA;HEP",
  "ReceiveCoilName": "Head_32",
  "ReconMatrixPE": 64,
  "RefLinesPE": 24,
  "RepetitionTime": 2,
  "SAR": 0.0987621,
  "ScanOptions": "FS",
  "ScanningSequence": "EP",
  "SequenceName": "_epfid2d1_64",
  "SequenceVariant": "SK",
  "SeriesDescription": "taken_recovery",
  "SeriesNumber": 20,
  "ShimSetting": [5228, -6231, -3842, 426, 26, -407, 171, 65],
  "SliceThickness": 3,
  "SliceTiming": [1.92, 1.86, 1.8, 1.74, 1.68, 1.62, 1.56, 1.5, 1.44, 1.38, 1.32, 1.26, 1.2, 1.14, 1.08, 1.02, 0.96, 0.9, 0.84, 0.78, 0.72, 0.66, 0.6, 0.54, 0.48, 0.42, 0.36, 0.3, 0.24, 0.18, 0.12, 0.06, 0],
  "SoftwareVersions": "syngo_MR_D13D",
  "SpacingBetweenSlices": 3.75,
  "StationName": "AWP67007",
  "TaskName": "audiorecovery",
  "TotalReadoutTime": 0.0245701,
  "TxRefAmp": 265.526,
  "dcmmeta_affine": [
    [-2.999835729598999, 0.026179170235991478, 0.021647922694683075, 93.91796112060547],
    [0.02435750514268875, 2.985476016998291, -0.367296427488327, -70.7354736328125],
    [0.019798630848526955, 0.29368045926094055, 3.7319061756134033, -62.25905990600586],
    [0.0, 0.0, 0.0, 1.0]
],
  "dcmmeta_reorient_transform": [
    [0.0, -1.0, 0.0, 63.0],
    [1.0, 0.0, 0.0, 0.0],
    [0.0, 0.0, 1.0, 0.0],
    [0.0, 0.0, 0.0, 1.0]
],
  "dcmmeta_shape": [64, 64, 33, 155],
  "dcmmeta_slice_dim": 2,
  "dcmmeta_version": 0.6,
  "global": {
    "const": {
      "AcquisitionMatrix": [0, 64, 64, 0],
      "AngioFlag": "N",
      "BitsAllocated": 16,
      "BitsStored": 12,
      "BodyPartExamined": "BRAIN",
      "Columns": 384,
      "EchoNumbers": 1,
      "EchoTime": 30.0,
      "EchoTrainLength": 31,
      "FlipAngle": 75.0,
      "HighBit": 11,
      "ImageOrientationPatient": [0.99994526106669, -0.0081191681652, 0.00659954381598, 0.00872639037563, 0.99515863808735, -0.0978934888087],
      "ImagePositionPatient": [-579.72964462822, -591.1284579723, 0.06390423475376],
      "ImageType": [
        "ORIGINAL",
        "PRIMARY",
        "M",
        "ND",
        "NORM",
        "MOSAIC"
],
      "ImagedNucleus": "1H",
      "ImagingFrequency": 123.211276,
      "InPlanePhaseEncodingDirection": "ROW",
      "MRAcquisitionType": "2D",
      "MagneticFieldStrength": 3.0,
      "Manufacturer": "SIEMENS",
      "ManufacturerModelName": "Prisma_fit",
      "Modality": "MR",
      "NumberOfAverages": 1.0,
      "NumberOfPhaseEncodingSteps": 63,
      "PercentPhaseFieldOfView": 100.0,
      "PercentSampling": 100.0,
      "PerformedProcedureStepStartTime": "180503.802000",
      "PhotometricInterpretation": "MONOCHROME2",
      "PixelBandwidth": 1475.0,
      "PixelRepresentation": 0,
      "PixelSpacing": [3.0, 3.0],
      "ProtocolName": "taken_recovery",
      "RepetitionTime": 2000.0,
      "Rows": 384,
      "SAR": 0.09876205189719,
      "SamplesPerPixel": 1,
      "ScanOptions": "FS",
      "ScanningSequence": "EP",
      "SequenceName": "*epfid2d1_64",
      "SequenceVariant": "SK",
      "SeriesDescription": "taken_recovery",
      "SeriesNumber": 20,
      "SeriesTime": "195638.203000",
      "SliceLocation": -54.488255464454,
      "SliceThickness": 3.0,
      "SmallestImagePixelValue": 0,
      "SoftwareVersions": "syngo MR D13D",
      "SpacingBetweenSlices": 3.7499998698128,
      "SpecificCharacterSet": "ISO_IR 100",
      "StudyID": "1",
      "StudyTime": "180503.692000",
      "TimeOfLastCalibration": ["123723.000000", "123723.000000"],
      "TransmitCoilName": "Body",
      "VariableFlipAngleFlag": "N",
      "WindowCenterWidthExplanation": "Algo1",
      "dBdt": 0.0},
    "slices": {}
  },
  "time": {
    "samples": {
      "AcquisitionNumber": [1, 2, 3, 4, 5, 6, 7, 8, 9, 10, 11, 12, 13, 14, 15, 16, 17, 18, 19, 20, 21, 22, 23, 24, 25, 26, 27, 28, 29, 30, 31, 32, 33, 34, 35, 36, 37, 38, 39, 40, 41, 42, 43, 44, 45, 46, 47, 48, 49, 50, 51, 52, 53, 54, 55, 56, 57, 58, 59, 60, 61, 62, 63, 64, 65, 66, 67, 68, 69, 70, 71, 72, 73, 74, 75, 76, 77, 78, 79, 80, 81, 82, 83, 84, 85, 86, 87, 88, 89, 90, 91, 92, 93, 94, 95, 96, 97, 98, 99, 100, 101, 102, 103, 104, 105, 106, 107, 108, 109, 110, 111, 112, 113, 114, 115, 116, 117, 118, 119, 120, 121, 122, 123, 124, 125, 126, 127, 128, 129, 130, 131, 132, 133, 134, 135, 136, 137, 138, 139, 140, 141, 142, 143, 144, 145, 146, 147, 148, 149, 150, 151, 152, 153, 154, 155],
      "AcquisitionTime": ["195625.450000", "195627.450000", "195629.450000", "195631.450000", "195633.450000", "195635.450000", "195637.450000", "195639.450000", "195641.450000", "195643.450000", "195645.450000", "195647.450000", "195649.450000", "195651.450000", "195653.450000", "195655.450000", "195657.450000", "195659.450000", "195701.450000", "195703.450000", "195705.450000", "195707.450000", "195709.450000", "195711.450000", "195713.450000", "195715.450000", "195717.450000", "195719.450000", "195721.450000", "195723.450000", "195725.450000", "195727.450000", "195729.450000", "195731.450000", "195733.450000", "195735.450000", "195737.450000", "195739.450000", "195741.450000", "195743.450000", "195745.450000", "195747.450000", "195749.450000", "195751.450000", "195753.450000", "195755.450000", "195757.450000", "195759.450000", "195801.450000", "195803.450000", "195805.450000", "195807.450000", "195809.450000", "195811.450000", "195813.450000", "195815.450000", "195817.450000", "195819.450000", "195821.450000", "195823.450000", "195825.450000", "195827.450000", "195829.450000", "195831.450000", "195833.450000", "195835.450000", "195837.450000", "195839.450000", "195841.450000", "195843.450000", "195845.450000", "195847.450000", "195849.450000", "195851.450000", "195853.450000", "195855.450000", "195857.450000", "195859.450000", "195901.450000", "195903.450000", "195905.450000", "195907.450000", "195909.450000", "195911.450000", "195913.450000", "195915.450000", "195917.450000", "195919.450000", "195921.450000", "195923.450000", "195925.450000", "195927.450000", "195929.450000", "195931.450000", "195933.450000", "195935.450000", "195937.450000", "195939.450000", "195941.450000", "195943.450000", "195945.450000", "195947.450000", "195949.450000", "195951.450000", "195953.450000", "195955.450000", "195957.450000", "195959.450000", "200001.450000", "200003.450000", "200005.450000", "200007.450000", "200009.450000", "200011.450000", "200013.450000", "200015.450000", "200017.450000", "200019.450000", "200021.450000", "200023.450000", "200025.450000", "200027.450000", "200029.450000", "200031.450000", "200033.450000", "200035.450000", "200037.450000", "200039.450000", "200041.450000", "200043.450000", "200045.450000", "200047.450000", "200049.450000", "200051.450000", "200053.450000", "200055.450000", "200057.450000", "200059.450000", "200101.450000", "200103.450000", "200105.450000", "200107.450000", "200109.450000", "200111.450000", "200113.450000", "200115.450000", "200117.450000", "200119.450000", "200121.450000", "200123.450000", "200125.450000", "200127.450000", "200129.450000", "200131.450000", "200133.450000"],
      "ContentTime": ["195638.209000", "195638.213000", "195638.216000", "195638.219000", "195638.222000", "195638.224000", "195638.227000", "195718.201000", "195718.205000", "195718.207000", "195718.210000", "195718.213000", "195718.216000", "195718.219000", "195718.222000", "195718.224000", "195718.227000", "195718.230000", "195718.233000", "195718.236000", "195718.239000", "195718.241000", "195718.244000", "195718.251000", "195718.254000", "195718.257000", "195718.260000", "195758.202000", "195758.205000", "195758.208000", "195758.211000", "195758.214000", "195758.217000", "195758.220000", "195758.222000", "195758.225000", "195758.228000", "195758.231000", "195758.234000", "195758.237000", "195758.239000", "195758.242000", "195758.245000", "195758.248000", "195758.251000", "195758.254000", "195758.256000", "195838.201000", "195838.205000", "195838.208000", "195838.210000", "195838.213000", "195838.216000", "195838.219000", "195838.222000", "195838.225000", "195838.228000", "195838.230000", "195838.233000", "195838.236000", "195838.239000", "195838.242000", "195838.245000", "195838.248000", "195838.250000", "195838.253000", "195838.256000", "195918.201000", "195918.204000", "195918.207000", "195918.210000", "195918.213000", "195918.216000", "195918.219000", "195918.221000", "195918.224000", "195918.227000", "195918.230000", "195918.233000", "195918.236000", "195918.238000", "195918.241000", "195918.244000", "195918.247000", "195918.250000", "195918.253000", "195918.256000", "195958.202000", "195958.206000", "195958.208000", "195958.211000", "195958.214000", "195958.217000", "195958.219000", "195958.222000", "195958.225000", "195958.228000", "195958.231000", "195958.234000", "195958.237000", "195958.239000", "195958.242000", "195958.245000", "195958.248000", "195958.251000", "195958.254000", "195958.256000", "200038.202000", "200038.205000", "200038.208000", "200038.211000", "200038.214000", "200038.217000", "200038.220000", "200038.223000", "200038.225000", "200038.228000", "200038.231000", "200038.234000", "200038.237000", "200038.240000", "200038.243000", "200038.245000", "200038.248000", "200038.251000", "200038.254000", "200038.257000", "200118.201000", "200118.204000", "200118.207000", "200118.210000", "200118.213000", "200118.216000", "200118.219000", "200118.222000", "200118.225000", "200118.228000", "200118.231000", "200118.233000", "200118.236000", "200118.239000", "200118.242000", "200118.245000", "200118.248000", "200118.250000", "200118.253000", "200118.256000", "200133.834000", "200133.837000", "200133.840000", "200133.842000", "200133.845000", "200133.848000", "200133.851000", "200133.854000"],
      "InstanceCreationTime": ["195638.209000", "195638.213000", "195638.216000", "195638.219000", "195638.222000", "195638.224000", "195638.227000", "195718.201000", "195718.205000", "195718.207000", "195718.210000", "195718.213000", "195718.216000", "195718.219000", "195718.222000", "195718.224000", "195718.227000", "195718.230000", "195718.233000", "195718.236000", "195718.239000", "195718.241000", "195718.244000", "195718.251000", "195718.254000", "195718.257000", "195718.260000", "195758.202000", "195758.205000", "195758.208000", "195758.211000", "195758.214000", "195758.217000", "195758.220000", "195758.222000", "195758.225000", "195758.228000", "195758.231000", "195758.234000", "195758.237000", "195758.239000", "195758.242000", "195758.245000", "195758.248000", "195758.251000", "195758.254000", "195758.256000", "195838.201000", "195838.205000", "195838.208000", "195838.210000", "195838.213000", "195838.216000", "195838.219000", "195838.222000", "195838.225000", "195838.228000", "195838.230000", "195838.233000", "195838.236000", "195838.239000", "195838.242000", "195838.245000", "195838.248000", "195838.250000", "195838.253000", "195838.256000", "195918.201000", "195918.204000", "195918.207000", "195918.210000", "195918.213000", "195918.216000", "195918.219000", "195918.221000", "195918.224000", "195918.227000", "195918.230000", "195918.233000", "195918.236000", "195918.238000", "195918.241000", "195918.244000", "195918.247000", "195918.250000", "195918.253000", "195918.256000", "195958.202000", "195958.206000", "195958.208000", "195958.211000", "195958.214000", "195958.217000", "195958.219000", "195958.222000", "195958.225000", "195958.228000", "195958.231000", "195958.234000", "195958.237000", "195958.239000", "195958.242000", "195958.245000", "195958.248000", "195958.251000", "195958.254000", "195958.256000", "200038.202000", "200038.205000", "200038.208000", "200038.211000", "200038.214000", "200038.217000", "200038.220000", "200038.223000", "200038.225000", "200038.228000", "200038.231000", "200038.234000", "200038.237000", "200038.240000", "200038.243000", "200038.245000", "200038.248000", "200038.251000", "200038.254000", "200038.257000", "200118.201000", "200118.204000", "200118.207000", "200118.210000", "200118.213000", "200118.216000", "200118.219000", "200118.222000", "200118.225000", "200118.228000", "200118.231000", "200118.233000", "200118.236000", "200118.239000", "200118.242000", "200118.245000", "200118.248000", "200118.250000", "200118.253000", "200118.256000", "200133.834000", "200133.837000", "200133.840000", "200133.842000", "200133.845000", "200133.848000", "200133.851000", "200133.854000"],
      "InstanceNumber": [1, 2, 3, 4, 5, 6, 7, 8, 9, 10, 11, 12, 13, 14, 15, 16, 17, 18, 19, 20, 21, 22, 23, 24, 25, 26, 27, 28, 29, 30, 31, 32, 33, 34, 35, 36, 37, 38, 39, 40, 41, 42, 43, 44, 45, 46, 47, 48, 49, 50, 51, 52, 53, 54, 55, 56, 57, 58, 59, 60, 61, 62, 63, 64, 65, 66, 67, 68, 69, 70, 71, 72, 73, 74, 75, 76, 77, 78, 79, 80, 81, 82, 83, 84, 85, 86, 87, 88, 89, 90, 91, 92, 93, 94, 95, 96, 97, 98, 99, 100, 101, 102, 103, 104, 105, 106, 107, 108, 109, 110, 111, 112, 113, 114, 115, 116, 117, 118, 119, 120, 121, 122, 123, 124, 125, 126, 127, 128, 129, 130, 131, 132, 133, 134, 135, 136, 137, 138, 139, 140, 141, 142, 143, 144, 145, 146, 147, 148, 149, 150, 151, 152, 153, 154, 155],
      "LargestImagePixelValue": [757, 808, 791, 740, 784, 743, 792, 748, 783, 768, 723, 765, 763, 774, 737, 820, 773, 737, 797, 727, 844, 744, 781, 779, 791, 855, 730, 742, 734, 765, 766, 847, 772, 762, 751, 733, 777, 744, 766, 738, 772, 763, 794, 754, 823, 757, 788, 762, 760, 794, 724, 801, 752, 780, 768, 719, 737, 784, 752, 846, 773, 794, 756, 785, 783, 765, 788, 752, 755, 784, 750, 795, 765, 810, 796, 814, 754, 783, 763, 748, 784, 927, 819, 777, 778, 741, 765, 827, 763, 893, 753, 791, 782, 757, 760, 748, 878, 762, 818, 783, 752, 774, 774, 757, 766, 806, 780, 779, 799, 763, 754, 817, 881, 763, 776, 777, 762, 833, 803, 877, 797, 855, 775, 743, 815, 752, 782, 728, 825, 740, 778, 768, 748, 779, 772, 828, 801, 885, 777, 760, 735, 760, 766, 764, 759, 829, 771, 943, 745, 754, 800, 773, 849, 751, 743],
      "WindowCenter": [428.0, 427.0, 427.0, 426.0, 426.0, 426.0, 428.0, 427.0, 428.0, 427.0, 428.0, 428.0, 428.0, 428.0, 428.0, 428.0, 427.0, 427.0, 427.0, 426.0, 428.0, 428.0, 429.0, 428.0, 428.0, 429.0, 427.0, 427.0, 429.0, 433.0, 434.0, 431.0, 428.0, 427.0, 427.0, 427.0, 427.0, 427.0, 427.0, 427.0, 427.0, 426.0, 427.0, 427.0, 428.0, 426.0, 427.0, 426.0, 426.0, 427.0, 426.0, 427.0, 427.0, 428.0, 427.0, 426.0, 427.0, 428.0, 428.0, 428.0, 427.0, 427.0, 426.0, 427.0, 427.0, 427.0, 428.0, 427.0, 428.0, 428.0, 428.0, 429.0, 429.0, 430.0, 429.0, 430.0, 429.0, 429.0, 429.0, 429.0, 430.0, 431.0, 430.0, 428.0, 429.0, 428.0, 429.0, 430.0, 429.0, 431.0, 429.0, 430.0, 429.0, 430.0, 430.0, 429.0, 431.0, 429.0, 430.0, 429.0, 429.0, 430.0, 429.0, 429.0, 429.0, 429.0, 429.0, 429.0, 430.0, 430.0, 430.0, 430.0, 430.0, 429.0, 430.0, 430.0, 430.0, 431.0, 431.0, 430.0, 429.0, 430.0, 429.0, 428.0, 430.0, 429.0, 429.0, 429.0, 430.0, 429.0, 429.0, 429.0, 429.0, 429.0, 429.0, 429.0, 429.0, 430.0, 429.0, 429.0, 428.0, 429.0, 429.0, 428.0, 430.0, 430.0, 429.0, 430.0, 427.0, 428.0, 429.0, 429.0, 429.0, 428.0, 428.0],
      "WindowWidth": [898.0, 896.0, 894.0, 893.0, 894.0, 894.0, 897.0, 896.0, 897.0, 896.0, 896.0, 896.0, 897.0, 896.0, 897.0, 897.0, 894.0, 895.0, 895.0, 894.0, 896.0, 897.0, 898.0, 898.0, 897.0, 898.0, 895.0, 896.0, 899.0, 908.0, 909.0, 902.0, 897.0, 895.0, 896.0, 895.0, 895.0, 895.0, 896.0, 896.0, 895.0, 894.0, 895.0, 895.0, 896.0, 894.0, 895.0, 893.0, 894.0, 894.0, 894.0, 895.0, 895.0, 896.0, 894.0, 894.0, 896.0, 898.0, 897.0, 896.0, 895.0, 895.0, 894.0, 895.0, 895.0, 895.0, 896.0, 896.0, 897.0, 897.0, 897.0, 898.0, 899.0, 901.0, 900.0, 900.0, 899.0, 899.0, 899.0, 900.0, 901.0, 903.0, 899.0, 897.0, 898.0, 897.0, 898.0, 900.0, 899.0, 901.0, 899.0, 899.0, 899.0, 900.0, 900.0, 898.0, 901.0, 898.0, 899.0, 898.0, 899.0, 900.0, 899.0, 899.0, 898.0, 899.0, 898.0, 898.0, 900.0, 900.0, 900.0, 900.0, 900.0, 899.0, 900.0, 900.0, 901.0, 902.0, 902.0, 900.0, 898.0, 900.0, 898.0, 898.0, 899.0, 899.0, 899.0, 898.0, 900.0, 898.0, 900.0, 898.0, 899.0, 898.0, 899.0, 898.0, 899.0, 900.0, 898.0, 898.0, 898.0, 898.0, 898.0, 897.0, 900.0, 901.0, 899.0, 900.0, 895.0, 897.0, 898.0, 898.0, 899.0, 897.0, 897.0]
    },
    "slices": {}
  }
}