{
  "AcquisitionMatrixPE": 64,
  "AcquisitionNumber": 1,
  "AcquisitionTime": "18:54:51.337500",
  "BandwidthPerPixelPhaseEncode": 40.064,
  "BaseResolution": 64,
  "BodyPartExamined": "BRAIN",
  "ConsistencyInfo": "N4_VD13D_LATEST_20130810",
  "ConversionSoftware": "dcm2niix",
  "ConversionSoftwareVersion": "v1.0.20191031",
  "DerivedVendorReportedEchoSpacing": 0.000780002,
  "DeviceSerialNumber": "67007",
  "DwellTime": 5.3e-06,
  "EchoTime": 0.03,
  "EchoTrainLength": 31,
  "EffectiveEchoSpacing": 0.000390001,
  "FlipAngle": 75,
  "ImageOrientationPatientDICOM": [0.999945, -0.00811917, 0.00659954, 0.00872639, 0.995159, -0.0978935],
  "ImageType": [
    "ORIGINAL",
    "PRIMARY",
    "M",
    "ND",
    "NORM",
    "MOSAIC"
],
  "ImagingFrequency": 123.211,
  "InPlanePhaseEncodingDirectionDICOM": "ROW",
  "InstitutionAddress": "Perth_Drive_100_London_Ontario_CA_N6A_5K8",
  "InstitutionName": "Robarts_Research_Institute",
  "InstitutionalDepartmentName": "CFMM",
  "MRAcquisitionType": "2D",
  "MagneticFieldStrength": 3,
  "Manufacturer": "Siemens",
  "ManufacturersModelName": "Prisma_fit",
  "Modality": "MR",
  "ParallelReductionFactorInPlane": 2,
  "PartialFourier": 1,
  "PatientPosition": "HFS",
  "PercentPhaseFOV": 100,
  "PhaseEncodingDirection": "i",
  "PhaseEncodingSteps": 63,
  "PhaseResolution": 1,
  "PixelBandwidth": 1475,
  "ProcedureStepDescription": "Owen_Naci",
  "ProtocolName": "Resting_State_light_sed",
  "PulseSequenceDetails": "%SiemensSeq%_ep2d_bold",
  "ReceiveCoilActiveElements": "HEA;HEP",
  "ReceiveCoilName": "Head_32",
  "ReconMatrixPE": 64,
  "RefLinesPE": 24,
  "RepetitionTime": 2,
  "SAR": 0.0989456,
  "ScanOptions": "FS",
  "ScanningSequence": "EP",
  "SequenceName": "_epfid2d1_64",
  "SequenceVariant": "SK",
  "SeriesDescription": "Resting_State_light_sed",
  "SeriesNumber": 7,
  "ShimSetting": [5228, -6231, -3842, 426, 26, -407, 171, 65],
  "SliceThickness": 3,
  "SliceTiming": [1.92, 1.86, 1.8, 1.74, 1.68, 1.62, 1.56, 1.5, 1.44, 1.38, 1.32, 1.26, 1.2, 1.14, 1.08, 1.02, 0.96, 0.9, 0.84, 0.78, 0.72, 0.66, 0.6, 0.54, 0.48, 0.42, 0.36, 0.3, 0.24, 0.18, 0.12, 0.06, 0],
  "SoftwareVersions": "syngo_MR_D13D",
  "SpacingBetweenSlices": 3.75,
  "StationName": "AWP67007",
  "TaskName": "restlight",
  "TotalReadoutTime": 0.0245701,
  "TxRefAmp": 265.526,
  "dcmmeta_affine": [
    [-2.999835729598999, 0.026179170235991478, 0.021647922694683075, 93.91796112060547],
    [0.02435750514268875, 2.985476016998291, -0.367296427488327, -70.7354736328125],
    [0.019798630848526955, 0.29368045926094055, 3.7319061756134033, -62.25905990600586],
    [0.0, 0.0, 0.0, 1.0]
],
  "dcmmeta_reorient_transform": [
    [0.0, -1.0, 0.0, 63.0],
    [1.0, 0.0, 0.0, 0.0],
    [0.0, 0.0, 1.0, 0.0],
    [0.0, 0.0, 0.0, 1.0]
],
  "dcmmeta_shape": [64, 64, 33, 256],
  "dcmmeta_slice_dim": 2,
  "dcmmeta_version": 0.6,
  "global": {
    "const": {
      "AcquisitionMatrix": [0, 64, 64, 0],
      "AngioFlag": "N",
      "BitsAllocated": 16,
      "BitsStored": 12,
      "BodyPartExamined": "BRAIN",
      "Columns": 384,
      "EchoNumbers": 1,
      "EchoTime": 30.0,
      "EchoTrainLength": 31,
      "FlipAngle": 75.0,
      "HighBit": 11,
      "ImageOrientationPatient": [0.99994526106669, -0.0081191681652, 0.00659954381598, 0.00872639037563, 0.99515863808735, -0.0978934888087],
      "ImagePositionPatient": [-579.72964462822, -591.1284579723, 0.06390423475376],
      "ImageType": [
        "ORIGINAL",
        "PRIMARY",
        "M",
        "ND",
        "NORM",
        "MOSAIC"
],
      "ImagedNucleus": "1H",
      "ImagingFrequency": 123.211253,
      "InPlanePhaseEncodingDirection": "ROW",
      "MRAcquisitionType": "2D",
      "MagneticFieldStrength": 3.0,
      "Manufacturer": "SIEMENS",
      "ManufacturerModelName": "Prisma_fit",
      "Modality": "MR",
      "NumberOfAverages": 1.0,
      "NumberOfPhaseEncodingSteps": 63,
      "PercentPhaseFieldOfView": 100.0,
      "PercentSampling": 100.0,
      "PerformedProcedureStepStartTime": "180503.802000",
      "PhotometricInterpretation": "MONOCHROME2",
      "PixelBandwidth": 1475.0,
      "PixelRepresentation": 0,
      "PixelSpacing": [3.0, 3.0],
      "ProtocolName": "Resting State_light sed",
      "RepetitionTime": 2000.0,
      "Rows": 384,
      "SAR": 0.09894555853665,
      "SamplesPerPixel": 1,
      "ScanOptions": "FS",
      "ScanningSequence": "EP",
      "SequenceName": "*epfid2d1_64",
      "SequenceVariant": "SK",
      "SeriesDescription": "Resting State_light sed",
      "SeriesNumber": 7,
      "SeriesTime": "185529.853000",
      "SliceLocation": -54.488255464454,
      "SliceThickness": 3.0,
      "SmallestImagePixelValue": 0,
      "SoftwareVersions": "syngo MR D13D",
      "SpacingBetweenSlices": 3.7499998698128,
      "SpecificCharacterSet": "ISO_IR 100",
      "StudyID": "1",
      "StudyTime": "180503.692000",
      "TimeOfLastCalibration": ["123723.000000", "123723.000000"],
      "TransmitCoilName": "Body",
      "VariableFlipAngleFlag": "N",
      "WindowCenterWidthExplanation": "Algo1",
      "dBdt": 0.0},
    "slices": {}
  },
  "time": {
    "samples": {
      "AcquisitionNumber": [1, 2, 3, 4, 5, 6, 7, 8, 9, 10, 11, 12, 13, 14, 15, 16, 17, 18, 19, 20, 21, 22, 23, 24, 25, 26, 27, 28, 29, 30, 31, 32, 33, 34, 35, 36, 37, 38, 39, 40, 41, 42, 43, 44, 45, 46, 47, 48, 49, 50, 51, 52, 53, 54, 55, 56, 57, 58, 59, 60, 61, 62, 63, 64, 65, 66, 67, 68, 69, 70, 71, 72, 73, 74, 75, 76, 77, 78, 79, 80, 81, 82, 83, 84, 85, 86, 87, 88, 89, 90, 91, 92, 93, 94, 95, 96, 97, 98, 99, 100, 101, 102, 103, 104, 105, 106, 107, 108, 109, 110, 111, 112, 113, 114, 115, 116, 117, 118, 119, 120, 121, 122, 123, 124, 125, 126, 127, 128, 129, 130, 131, 132, 133, 134, 135, 136, 137, 138, 139, 140, 141, 142, 143, 144, 145, 146, 147, 148, 149, 150, 151, 152, 153, 154, 155, 156, 157, 158, 159, 160, 161, 162, 163, 164, 165, 166, 167, 168, 169, 170, 171, 172, 173, 174, 175, 176, 177, 178, 179, 180, 181, 182, 183, 184, 185, 186, 187, 188, 189, 190, 191, 192, 193, 194, 195, 196, 197, 198, 199, 200, 201, 202, 203, 204, 205, 206, 207, 208, 209, 210, 211, 212, 213, 214, 215, 216, 217, 218, 219, 220, 221, 222, 223, 224, 225, 226, 227, 228, 229, 230, 231, 232, 233, 234, 235, 236, 237, 238, 239, 240, 241, 242, 243, 244, 245, 246, 247, 248, 249, 250, 251, 252, 253, 254, 255, 256],
      "AcquisitionTime": ["185451.337500", "185453.337500", "185455.337500", "185457.337500", "185459.337500", "185501.337500", "185503.337500", "185505.337500", "185507.337500", "185509.337500", "185511.337500", "185513.337500", "185515.337500", "185517.337500", "185519.337500", "185521.337500", "185523.337500", "185525.337500", "185527.337500", "185529.337500", "185531.337500", "185533.337500", "185535.337500", "185537.337500", "185539.337500", "185541.337500", "185543.337500", "185545.337500", "185547.337500", "185549.337500", "185551.337500", "185553.337500", "185555.337500", "185557.337500", "185559.337500", "185601.337500", "185603.337500", "185605.337500", "185607.337500", "185609.337500", "185611.337500", "185613.337500", "185615.337500", "185617.337500", "185619.337500", "185621.337500", "185623.337500", "185625.337500", "185627.337500", "185629.337500", "185631.337500", "185633.337500", "185635.337500", "185637.337500", "185639.337500", "185641.337500", "185643.337500", "185645.337500", "185647.337500", "185649.337500", "185651.337500", "185653.337500", "185655.337500", "185657.337500", "185659.337500", "185701.337500", "185703.337500", "185705.337500", "185707.337500", "185709.337500", "185711.337500", "185713.337500", "185715.337500", "185717.337500", "185719.337500", "185721.337500", "185723.337500", "185725.337500", "185727.337500", "185729.337500", "185731.337500", "185733.337500", "185735.337500", "185737.337500", "185739.337500", "185741.337500", "185743.337500", "185745.337500", "185747.337500", "185749.337500", "185751.337500", "185753.337500", "185755.337500", "185757.337500", "185759.337500", "185801.337500", "185803.337500", "185805.337500", "185807.337500", "185809.337500", "185811.337500", "185813.337500", "185815.337500", "185817.337500", "185819.337500", "185821.337500", "185823.337500", "185825.340000", "185827.340000", "185829.340000", "185831.340000", "185833.340000", "185835.340000", "185837.340000", "185839.340000", "185841.340000", "185843.340000", "185845.340000", "185847.340000", "185849.340000", "185851.340000", "185853.340000", "185855.340000", "185857.340000", "185859.340000", "185901.340000", "185903.340000", "185905.340000", "185907.340000", "185909.340000", "185911.340000", "185913.340000", "185915.340000", "185917.340000", "185919.340000", "185921.340000", "185923.340000", "185925.340000", "185927.340000", "185929.340000", "185931.340000", "185933.340000", "185935.340000", "185937.340000", "185939.340000", "185941.340000", "185943.340000", "185945.340000", "185947.340000", "185949.340000", "185951.340000", "185953.340000", "185955.340000", "185957.340000", "185959.340000", "190001.340000", "190003.340000", "190005.340000", "190007.340000", "190009.340000", "190011.340000", "190013.340000", "190015.340000", "190017.340000", "190019.340000", "190021.340000", "190023.340000", "190025.340000", "190027.340000", "190029.340000", "190031.340000", "190033.340000", "190035.340000", "190037.340000", "190039.340000", "190041.340000", "190043.340000", "190045.340000", "190047.340000", "190049.340000", "190051.340000", "190053.340000", "190055.340000", "190057.340000", "190059.340000", "190101.340000", "190103.340000", "190105.340000", "190107.340000", "190109.340000", "190111.340000", "190113.340000", "190115.340000", "190117.340000", "190119.340000", "190121.340000", "190123.340000", "190125.340000", "190127.340000", "190129.340000", "190131.340000", "190133.340000", "190135.340000", "190137.340000", "190139.340000", "190141.340000", "190143.340000", "190145.340000", "190147.340000", "190149.340000", "190151.340000", "190153.340000", "190155.340000", "190157.340000", "190159.340000", "190201.340000", "190203.340000", "190205.340000", "190207.340000", "190209.340000", "190211.340000", "190213.340000", "190215.340000", "190217.340000", "190219.340000", "190221.340000", "190223.340000", "190225.340000", "190227.340000", "190229.340000", "190231.340000", "190233.340000", "190235.340000", "190237.340000", "190239.340000", "190241.340000", "190243.340000", "190245.340000", "190247.340000", "190249.340000", "190251.340000", "190253.340000", "190255.340000", "190257.340000", "190259.340000", "190301.340000", "190303.340000", "190305.340000", "190307.340000", "190309.340000", "190311.340000", "190313.340000", "190315.340000", "190317.340000", "190319.340000", "190321.340000"],
      "ContentTime": ["185529.857000", "185529.861000", "185529.864000", "185529.867000", "185529.870000", "185529.872000", "185529.875000", "185529.878000", "185529.880000", "185529.883000", "185529.886000", "185529.888000", "185529.891000", "185529.894000", "185529.896000", "185529.904000", "185529.906000", "185529.909000", "185529.912000", "185529.915000", "185609.852000", "185609.855000", "185609.858000", "185609.860000", "185609.863000", "185609.866000", "185609.868000", "185609.871000", "185609.874000", "185609.876000", "185609.879000", "185609.882000", "185609.884000", "185609.887000", "185609.889000", "185609.892000", "185609.895000", "185609.898000", "185609.900000", "185609.909000", "185649.852000", "185649.856000", "185649.858000", "185649.861000", "185649.864000", "185649.867000", "185649.870000", "185649.872000", "185649.875000", "185649.878000", "185649.880000", "185649.883000", "185649.886000", "185649.888000", "185649.891000", "185649.893000", "185649.896000", "185649.899000", "185649.901000", "185649.904000", "185729.851000", "185729.854000", "185729.857000", "185729.860000", "185729.863000", "185729.866000", "185729.869000", "185729.871000", "185729.874000", "185729.877000", "185729.879000", "185729.882000", "185729.885000", "185729.887000", "185729.890000", "185729.893000", "185729.895000", "185729.898000", "185729.901000", "185729.903000", "185809.852000", "185809.855000", "185809.858000", "185809.861000", "185809.864000", "185809.867000", "185809.869000", "185809.872000", "185809.875000", "185809.877000", "185809.880000", "185809.883000", "185809.886000", "185809.888000", "185809.891000", "185809.894000", "185809.897000", "185809.900000", "185809.902000", "185809.905000", "185849.852000", "185849.856000", "185849.859000", "185849.862000", "185849.865000", "185849.867000", "185849.870000", "185849.873000", "185849.876000", "185849.878000", "185849.881000", "185849.884000", "185849.886000", "185849.889000", "185849.892000", "185849.894000", "185849.897000", "185849.900000", "185849.902000", "185849.905000", "185929.852000", "185929.856000", "185929.858000", "185929.861000", "185929.864000", "185929.867000", "185929.869000", "185929.872000", "185929.875000", "185929.878000", "185929.880000", "185929.883000", "185929.886000", "185929.889000", "185929.891000", "185929.894000", "185929.897000", "185929.899000", "185929.902000", "185929.905000", "190009.851000", "190009.855000", "190009.857000", "190009.860000", "190009.863000", "190009.865000", "190009.868000", "190009.871000", "190009.873000", "190009.876000", "190009.879000", "190009.881000", "190009.884000", "190009.887000", "190009.889000", "190009.892000", "190009.895000", "190009.897000", "190009.900000", "190009.903000", "190049.852000", "190049.855000", "190049.858000", "190049.861000", "190049.864000", "190049.866000", "190049.869000", "190049.872000", "190049.875000", "190049.877000", "190049.880000", "190049.882000", "190049.885000", "190049.888000", "190049.891000", "190049.893000", "190049.896000", "190049.899000", "190049.902000", "190049.904000", "190129.852000", "190129.855000", "190129.858000", "190129.861000", "190129.864000", "190129.866000", "190129.869000", "190129.872000", "190129.878000", "190129.880000", "190129.883000", "190129.886000", "190129.888000", "190129.891000", "190129.894000", "190129.897000", "190129.899000", "190129.902000", "190129.905000", "190129.907000", "190209.851000", "190209.855000", "190209.857000", "190209.860000", "190209.863000", "190209.865000", "190209.868000", "190209.871000", "190209.873000", "190209.876000", "190209.879000", "190209.881000", "190209.884000", "190209.887000", "190209.889000", "190209.892000", "190209.895000", "190209.897000", "190209.900000", "190209.903000", "190249.851000", "190249.854000", "190249.857000", "190249.860000", "190249.863000", "190249.865000", "190249.868000", "190249.871000", "190249.873000", "190249.876000", "190249.879000", "190249.881000", "190249.884000", "190249.887000", "190249.889000", "190249.892000", "190249.895000", "190249.897000", "190249.900000", "190249.903000", "190321.735000", "190321.738000", "190321.741000", "190321.743000", "190321.746000", "190321.749000", "190321.752000", "190321.755000", "190321.761000", "190321.765000", "190321.768000", "190321.771000", "190321.774000", "190321.777000", "190321.780000", "190321.783000"],
      "InstanceCreationTime": ["185529.857000", "185529.861000", "185529.864000", "185529.867000", "185529.870000", "185529.872000", "185529.875000", "185529.878000", "185529.880000", "185529.883000", "185529.886000", "185529.888000", "185529.891000", "185529.894000", "185529.896000", "185529.904000", "185529.906000", "185529.909000", "185529.912000", "185529.915000", "185609.852000", "185609.855000", "185609.858000", "185609.860000", "185609.863000", "185609.866000", "185609.868000", "185609.871000", "185609.874000", "185609.876000", "185609.879000", "185609.882000", "185609.884000", "185609.887000", "185609.889000", "185609.892000", "185609.895000", "185609.898000", "185609.900000", "185609.909000", "185649.852000", "185649.856000", "185649.858000", "185649.861000", "185649.864000", "185649.867000", "185649.870000", "185649.872000", "185649.875000", "185649.878000", "185649.880000", "185649.883000", "185649.886000", "185649.888000", "185649.891000", "185649.893000", "185649.896000", "185649.899000", "185649.901000", "185649.904000", "185729.851000", "185729.854000", "185729.857000", "185729.860000", "185729.863000", "185729.866000", "185729.869000", "185729.871000", "185729.874000", "185729.877000", "185729.879000", "185729.882000", "185729.885000", "185729.887000", "185729.890000", "185729.893000", "185729.895000", "185729.898000", "185729.901000", "185729.903000", "185809.852000", "185809.855000", "185809.858000", "185809.861000", "185809.864000", "185809.867000", "185809.869000", "185809.872000", "185809.875000", "185809.877000", "185809.880000", "185809.883000", "185809.886000", "185809.888000", "185809.891000", "185809.894000", "185809.897000", "185809.900000", "185809.902000", "185809.905000", "185849.852000", "185849.856000", "185849.859000", "185849.862000", "185849.865000", "185849.867000", "185849.870000", "185849.873000", "185849.876000", "185849.878000", "185849.881000", "185849.884000", "185849.886000", "185849.889000", "185849.892000", "185849.894000", "185849.897000", "185849.900000", "185849.902000", "185849.905000", "185929.852000", "185929.856000", "185929.858000", "185929.861000", "185929.864000", "185929.867000", "185929.869000", "185929.872000", "185929.875000", "185929.878000", "185929.880000", "185929.883000", "185929.886000", "185929.889000", "185929.891000", "185929.894000", "185929.897000", "185929.899000", "185929.902000", "185929.905000", "190009.851000", "190009.855000", "190009.857000", "190009.860000", "190009.863000", "190009.865000", "190009.868000", "190009.871000", "190009.873000", "190009.876000", "190009.879000", "190009.881000", "190009.884000", "190009.887000", "190009.889000", "190009.892000", "190009.895000", "190009.897000", "190009.900000", "190009.903000", "190049.852000", "190049.855000", "190049.858000", "190049.861000", "190049.864000", "190049.866000", "190049.869000", "190049.872000", "190049.875000", "190049.877000", "190049.880000", "190049.882000", "190049.885000", "190049.888000", "190049.891000", "190049.893000", "190049.896000", "190049.899000", "190049.902000", "190049.904000", "190129.852000", "190129.855000", "190129.858000", "190129.861000", "190129.864000", "190129.866000", "190129.869000", "190129.872000", "190129.878000", "190129.880000", "190129.883000", "190129.886000", "190129.888000", "190129.891000", "190129.894000", "190129.897000", "190129.899000", "190129.902000", "190129.905000", "190129.907000", "190209.851000", "190209.855000", "190209.857000", "190209.860000", "190209.863000", "190209.865000", "190209.868000", "190209.871000", "190209.873000", "190209.876000", "190209.879000", "190209.881000", "190209.884000", "190209.887000", "190209.889000", "190209.892000", "190209.895000", "190209.897000", "190209.900000", "190209.903000", "190249.851000", "190249.854000", "190249.857000", "190249.860000", "190249.863000", "190249.865000", "190249.868000", "190249.871000", "190249.873000", "190249.876000", "190249.879000", "190249.881000", "190249.884000", "190249.887000", "190249.889000", "190249.892000", "190249.895000", "190249.897000", "190249.900000", "190249.903000", "190321.735000", "190321.738000", "190321.741000", "190321.743000", "190321.746000", "190321.749000", "190321.752000", "190321.755000", "190321.761000", "190321.765000", "190321.768000", "190321.771000", "190321.774000", "190321.777000", "190321.780000", "190321.783000"],
      "InstanceNumber": [1, 2, 3, 4, 5, 6, 7, 8, 9, 10, 11, 12, 13, 14, 15, 16, 17, 18, 19, 20, 21, 22, 23, 24, 25, 26, 27, 28, 29, 30, 31, 32, 33, 34, 35, 36, 37, 38, 39, 40, 41, 42, 43, 44, 45, 46, 47, 48, 49, 50, 51, 52, 53, 54, 55, 56, 57, 58, 59, 60, 61, 62, 63, 64, 65, 66, 67, 68, 69, 70, 71, 72, 73, 74, 75, 76, 77, 78, 79, 80, 81, 82, 83, 84, 85, 86, 87, 88, 89, 90, 91, 92, 93, 94, 95, 96, 97, 98, 99, 100, 101, 102, 103, 104, 105, 106, 107, 108, 109, 110, 111, 112, 113, 114, 115, 116, 117, 118, 119, 120, 121, 122, 123, 124, 125, 126, 127, 128, 129, 130, 131, 132, 133, 134, 135, 136, 137, 138, 139, 140, 141, 142, 143, 144, 145, 146, 147, 148, 149, 150, 151, 152, 153, 154, 155, 156, 157, 158, 159, 160, 161, 162, 163, 164, 165, 166, 167, 168, 169, 170, 171, 172, 173, 174, 175, 176, 177, 178, 179, 180, 181, 182, 183, 184, 185, 186, 187, 188, 189, 190, 191, 192, 193, 194, 195, 196, 197, 198, 199, 200, 201, 202, 203, 204, 205, 206, 207, 208, 209, 210, 211, 212, 213, 214, 215, 216, 217, 218, 219, 220, 221, 222, 223, 224, 225, 226, 227, 228, 229, 230, 231, 232, 233, 234, 235, 236, 237, 238, 239, 240, 241, 242, 243, 244, 245, 246, 247, 248, 249, 250, 251, 252, 253, 254, 255, 256],
      "LargestImagePixelValue": [784, 786, 766, 807, 773, 768, 761, 802, 756, 752, 748, 774, 829, 854, 768, 785, 719, 715, 769, 812, 759, 728, 714, 725, 720, 731, 751, 784, 759, 767, 727, 713, 734, 749, 733, 815, 733, 757, 735, 760, 762, 787, 729, 732, 743, 740, 788, 833, 803, 755, 769, 745, 732, 733, 738, 811, 713, 747, 741, 744, 786, 713, 730, 731, 747, 783, 753, 717, 744, 750, 722, 739, 715, 735, 735, 750, 791, 718, 746, 735, 730, 747, 726, 722, 730, 765, 748, 717, 766, 764, 753, 746, 743, 739, 780, 716, 750, 758, 768, 703, 752, 736, 727, 727, 751, 729, 760, 742, 732, 758, 743, 723, 784, 722, 805, 739, 754, 710, 804, 816, 721, 754, 756, 742, 764, 759, 788, 791, 798, 718, 727, 739, 736, 799, 758, 744, 742, 780, 751, 762, 760, 743, 797, 765, 703, 764, 760, 792, 727, 747, 740, 741, 746, 805, 821, 730, 715, 743, 773, 720, 782, 832, 734, 739, 737, 759, 757, 713, 734, 756, 784, 819, 793, 735, 718, 773, 735, 732, 818, 732, 744, 737, 748, 726, 766, 802, 801, 748, 751, 746, 735, 717, 744, 803, 719, 724, 754, 730, 720, 719, 712, 753, 809, 746, 722, 737, 735, 759, 756, 806, 783, 746, 735, 723, 723, 767, 801, 742, 718, 739, 735, 726, 725, 727, 726, 723, 732, 734, 725, 745, 729, 763, 773, 740, 751, 805, 767, 733, 747, 759, 748, 759, 754, 735, 727, 738, 734, 733, 716, 717, 722, 805, 769, 800, 751, 724],
      "WindowCenter": [427.0, 426.0, 434.0, 430.0, 430.0, 426.0, 425.0, 424.0, 424.0, 423.0, 424.0, 426.0, 426.0, 428.0, 426.0, 427.0, 425.0, 425.0, 426.0, 425.0, 425.0, 425.0, 426.0, 427.0, 426.0, 427.0, 426.0, 426.0, 426.0, 426.0, 425.0, 426.0, 426.0, 426.0, 426.0, 426.0, 426.0, 426.0, 426.0, 426.0, 427.0, 426.0, 425.0, 426.0, 426.0, 427.0, 427.0, 428.0, 428.0, 428.0, 427.0, 426.0, 425.0, 425.0, 426.0, 426.0, 425.0, 425.0, 425.0, 425.0, 426.0, 425.0, 425.0, 425.0, 425.0, 426.0, 426.0, 427.0, 426.0, 427.0, 426.0, 425.0, 425.0, 425.0, 425.0, 425.0, 425.0, 425.0, 427.0, 426.0, 425.0, 426.0, 425.0, 425.0, 425.0, 425.0, 425.0, 425.0, 425.0, 425.0, 425.0, 426.0, 427.0, 427.0, 427.0, 426.0, 427.0, 427.0, 427.0, 426.0, 426.0, 427.0, 427.0, 428.0, 427.0, 426.0, 426.0, 427.0, 425.0, 427.0, 426.0, 425.0, 427.0, 428.0, 432.0, 428.0, 427.0, 426.0, 425.0, 430.0, 423.0, 420.0, 420.0, 420.0, 420.0, 422.0, 424.0, 425.0, 427.0, 425.0, 425.0, 426.0, 426.0, 426.0, 426.0, 426.0, 426.0, 427.0, 427.0, 427.0, 427.0, 428.0, 428.0, 428.0, 427.0, 428.0, 428.0, 428.0, 427.0, 428.0, 428.0, 428.0, 429.0, 430.0, 430.0, 430.0, 429.0, 430.0, 429.0, 427.0, 428.0, 428.0, 428.0, 428.0, 428.0, 429.0, 428.0, 427.0, 427.0, 427.0, 427.0, 428.0, 427.0, 428.0, 427.0, 428.0, 428.0, 428.0, 428.0, 427.0, 427.0, 427.0, 428.0, 427.0, 428.0, 429.0, 429.0, 428.0, 428.0, 428.0, 428.0, 429.0, 428.0, 428.0, 427.0, 428.0, 428.0, 428.0, 429.0, 429.0, 429.0, 429.0, 429.0, 429.0, 428.0, 429.0, 429.0, 430.0, 429.0, 430.0, 430.0, 428.0, 429.0, 429.0, 428.0, 429.0, 429.0, 430.0, 429.0, 429.0, 429.0, 429.0, 429.0, 430.0, 429.0, 430.0, 430.0, 430.0, 430.0, 430.0, 429.0, 429.0, 430.0, 428.0, 428.0, 430.0, 429.0, 429.0, 429.0, 429.0, 430.0, 430.0, 430.0, 431.0, 431.0, 432.0, 433.0, 432.0, 432.0, 432.0, 431.0, 433.0, 431.0, 432.0, 432.0, 432.0],
      "WindowWidth": [895.0, 894.0, 910.0, 902.0, 901.0, 893.0, 892.0, 890.0, 889.0, 888.0, 890.0, 892.0, 894.0, 896.0, 893.0, 894.0, 892.0, 892.0, 893.0, 892.0, 891.0, 892.0, 893.0, 895.0, 893.0, 894.0, 893.0, 892.0, 892.0, 893.0, 892.0, 893.0, 893.0, 893.0, 893.0, 894.0, 893.0, 893.0, 892.0, 893.0, 894.0, 894.0, 892.0, 893.0, 893.0, 894.0, 895.0, 896.0, 896.0, 896.0, 894.0, 893.0, 892.0, 892.0, 893.0, 893.0, 892.0, 892.0, 893.0, 892.0, 893.0, 892.0, 892.0, 893.0, 892.0, 894.0, 893.0, 894.0, 895.0, 894.0, 894.0, 892.0, 892.0, 892.0, 892.0, 891.0, 892.0, 892.0, 894.0, 893.0, 892.0, 893.0, 892.0, 892.0, 892.0, 891.0, 892.0, 891.0, 892.0, 891.0, 892.0, 893.0, 895.0, 895.0, 895.0, 894.0, 895.0, 895.0, 895.0, 894.0, 894.0, 895.0, 896.0, 896.0, 894.0, 893.0, 893.0, 895.0, 893.0, 895.0, 893.0, 892.0, 895.0, 898.0, 905.0, 898.0, 896.0, 893.0, 892.0, 902.0, 889.0, 882.0, 883.0, 883.0, 882.0, 887.0, 890.0, 891.0, 895.0, 891.0, 892.0, 893.0, 893.0, 893.0, 893.0, 893.0, 894.0, 894.0, 894.0, 896.0, 896.0, 898.0, 897.0, 898.0, 896.0, 897.0, 897.0, 897.0, 896.0, 897.0, 898.0, 898.0, 899.0, 900.0, 901.0, 901.0, 900.0, 900.0, 898.0, 896.0, 897.0, 897.0, 897.0, 896.0, 897.0, 898.0, 896.0, 896.0, 896.0, 895.0, 896.0, 897.0, 896.0, 896.0, 895.0, 897.0, 896.0, 897.0, 897.0, 896.0, 895.0, 896.0, 896.0, 896.0, 898.0, 898.0, 899.0, 896.0, 897.0, 898.0, 897.0, 898.0, 897.0, 897.0, 895.0, 897.0, 897.0, 898.0, 898.0, 898.0, 899.0, 898.0, 898.0, 898.0, 898.0, 899.0, 900.0, 901.0, 899.0, 900.0, 899.0, 898.0, 900.0, 899.0, 898.0, 899.0, 899.0, 900.0, 899.0, 899.0, 900.0, 899.0, 900.0, 901.0, 899.0, 901.0, 902.0, 900.0, 901.0, 901.0, 899.0, 899.0, 901.0, 898.0, 898.0, 900.0, 898.0, 900.0, 899.0, 898.0, 901.0, 900.0, 900.0, 903.0, 902.0, 904.0, 906.0, 904.0, 906.0, 904.0, 903.0, 905.0, 902.0, 904.0, 903.0, 906.0]
    },
    "slices": {}
  }
}