{
  "AcquisitionMatrixPE": 64,
  "AcquisitionNumber": 2,
  "AcquisitionTime": "18:23:47.010000",
  "BandwidthPerPixelPhaseEncode": 40.064,
  "BaseResolution": 64,
  "BodyPartExamined": "BRAIN",
  "ConsistencyInfo": "N4_VD13D_LATEST_20130810",
  "ConversionSoftware": "dcm2niix",
  "ConversionSoftwareVersion": "v1.0.20191031",
  "DerivedVendorReportedEchoSpacing": 0.000780002,
  "DeviceSerialNumber": "67007",
  "DwellTime": 5.3e-06,
  "EchoTime": 0.03,
  "EchoTrainLength": 31,
  "EffectiveEchoSpacing": 0.000390001,
  "FlipAngle": 75,
  "ImageOrientationPatientDICOM": [0.999945, -0.00811917, 0.00659954, 0.00872639, 0.995159, -0.0978935],
  "ImageType": [
    "ORIGINAL",
    "PRIMARY",
    "M",
    "ND",
    "NORM",
    "MOSAIC"
],
  "ImagingFrequency": 123.211,
  "InPlanePhaseEncodingDirectionDICOM": "ROW",
  "InstitutionAddress": "Perth_Drive_100_London_Ontario_CA_N6A_5K8",
  "InstitutionName": "Robarts_Research_Institute",
  "InstitutionalDepartmentName": "CFMM",
  "MRAcquisitionType": "2D",
  "MagneticFieldStrength": 3,
  "Manufacturer": "Siemens",
  "ManufacturersModelName": "Prisma_fit",
  "Modality": "MR",
  "ParallelReductionFactorInPlane": 2,
  "PartialFourier": 1,
  "PatientPosition": "HFS",
  "PercentPhaseFOV": 100,
  "PhaseEncodingDirection": "i",
  "PhaseEncodingSteps": 63,
  "PhaseResolution": 1,
  "PixelBandwidth": 1475,
  "ProcedureStepDescription": "Owen_Naci",
  "ProtocolName": "Resting_State",
  "PulseSequenceDetails": "%SiemensSeq%_ep2d_bold",
  "ReceiveCoilActiveElements": "HEA;HEP",
  "ReceiveCoilName": "Head_32",
  "ReconMatrixPE": 64,
  "RefLinesPE": 24,
  "RepetitionTime": 2,
  "SAR": 0.0989456,
  "ScanOptions": "FS",
  "ScanningSequence": "EP",
  "SequenceName": "_epfid2d1_64",
  "SequenceVariant": "SK",
  "SeriesDescription": "Resting_State",
  "SeriesNumber": 5,
  "ShimSetting": [5228, -6231, -3842, 426, 26, -407, 171, 65],
  "SliceThickness": 3,
  "SliceTiming": [1.92, 1.86, 1.8, 1.74, 1.68, 1.62, 1.56, 1.5, 1.44, 1.38, 1.32, 1.26, 1.2, 1.14, 1.08, 1.02, 0.96, 0.9, 0.84, 0.78, 0.72, 0.66, 0.6, 0.54, 0.48, 0.42, 0.36, 0.3, 0.24, 0.18, 0.12, 0.06, 0],
  "SoftwareVersions": "syngo_MR_D13D",
  "SpacingBetweenSlices": 3.75,
  "StationName": "AWP67007",
  "TaskName": "rest",
  "TotalReadoutTime": 0.0245701,
  "TxRefAmp": 265.526,
  "dcmmeta_affine": [
    [-2.999835729598999, 0.026179170235991478, 0.021647922694683075, 93.91796112060547],
    [0.02435750514268875, 2.985476016998291, -0.367296427488327, -70.7354736328125],
    [0.019798630848526955, 0.29368045926094055, 3.7319061756134033, -62.25905990600586],
    [0.0, 0.0, 0.0, 1.0]
],
  "dcmmeta_reorient_transform": [
    [0.0, -1.0, 0.0, 63.0],
    [1.0, 0.0, 0.0, 0.0],
    [0.0, 0.0, 1.0, 0.0],
    [0.0, 0.0, 0.0, 1.0]
],
  "dcmmeta_shape": [64, 64, 33, 134],
  "dcmmeta_slice_dim": 2,
  "dcmmeta_version": 0.6,
  "global": {
    "const": {
      "AcquisitionMatrix": [0, 64, 64, 0],
      "AngioFlag": "N",
      "BitsAllocated": 16,
      "BitsStored": 12,
      "BodyPartExamined": "BRAIN",
      "Columns": 384,
      "EchoNumbers": 1,
      "EchoTime": 30.0,
      "EchoTrainLength": 31,
      "FlipAngle": 75.0,
      "HighBit": 11,
      "ImageOrientationPatient": [0.99994526106669, -0.0081191681652, 0.00659954381598, 0.00872639037563, 0.99515863808735, -0.0978934888087],
      "ImagePositionPatient": [-579.72964462822, -591.1284579723, 0.06390423475376],
      "ImageType": [
        "ORIGINAL",
        "PRIMARY",
        "M",
        "ND",
        "NORM",
        "MOSAIC"
],
      "ImagedNucleus": "1H",
      "ImagingFrequency": 123.21126,
      "InPlanePhaseEncodingDirection": "ROW",
      "MRAcquisitionType": "2D",
      "MagneticFieldStrength": 3.0,
      "Manufacturer": "SIEMENS",
      "ManufacturerModelName": "Prisma_fit",
      "Modality": "MR",
      "NumberOfAverages": 1.0,
      "NumberOfPhaseEncodingSteps": 63,
      "PercentPhaseFieldOfView": 100.0,
      "PercentSampling": 100.0,
      "PerformedProcedureStepStartTime": "180503.802000",
      "PhotometricInterpretation": "MONOCHROME2",
      "PixelBandwidth": 1475.0,
      "PixelRepresentation": 0,
      "PixelSpacing": [3.0, 3.0],
      "ProtocolName": "Resting State",
      "RepetitionTime": 2000.0,
      "Rows": 384,
      "SAR": 0.09894555853665,
      "SamplesPerPixel": 1,
      "ScanOptions": "FS",
      "ScanningSequence": "EP",
      "SequenceName": "*epfid2d1_64",
      "SequenceVariant": "SK",
      "SeriesDescription": "Resting State",
      "SeriesNumber": 5,
      "SeriesTime": "182348.344000",
      "SliceLocation": -54.488255464454,
      "SliceThickness": 3.0,
      "SmallestImagePixelValue": 0,
      "SoftwareVersions": "syngo MR D13D",
      "SpacingBetweenSlices": 3.7499998698128,
      "SpecificCharacterSet": "ISO_IR 100",
      "StudyID": "1",
      "StudyTime": "180503.692000",
      "TimeOfLastCalibration": ["123723.000000", "123723.000000"],
      "TransmitCoilName": "Body",
      "VariableFlipAngleFlag": "N",
      "WindowCenterWidthExplanation": "Algo1",
      "dBdt": 0.0},
    "slices": {}
  },
  "time": {
    "samples": {
      "AcquisitionNumber": [2, 5, 6, 7, 8, 9, 15, 16, 19, 21, 25, 27, 32, 33, 35, 38, 39, 40, 42, 45, 46, 49, 50, 54, 55, 58, 59, 60, 63, 64, 65, 67, 68, 70, 73, 74, 75, 77, 82, 84, 85, 88, 92, 93, 94, 96, 97, 98, 100, 101, 103, 106, 107, 108, 112, 114, 115, 116, 119, 120, 122, 123, 124, 126, 130, 132, 133, 134, 135, 136, 137, 138, 140, 143, 144, 145, 147, 148, 151, 153, 156, 161, 163, 165, 166, 167, 169, 170, 172, 173, 176, 177, 181, 182, 185, 186, 189, 190, 193, 194, 195, 198, 199, 200, 201, 202, 203, 204, 207, 208, 209, 210, 213, 214, 217, 220, 222, 223, 226, 227, 228, 231, 232, 234, 236, 237, 238, 241, 242, 243, 244, 245, 254, 255],
      "AcquisitionTime": ["182347.010000", "182353.010000", "182355.010000", "182357.010000", "182359.010000", "182401.010000", "182413.010000", "182415.010000", "182421.010000", "182425.010000", "182433.010000", "182437.010000", "182447.010000", "182449.010000", "182453.010000", "182459.010000", "182501.010000", "182503.010000", "182507.010000", "182513.010000", "182515.010000", "182521.010000", "182523.010000", "182531.010000", "182533.010000", "182539.010000", "182541.010000", "182543.010000", "182549.010000", "182551.010000", "182553.010000", "182557.010000", "182559.010000", "182603.010000", "182609.010000", "182611.010000", "182613.010000", "182617.010000", "182627.010000", "182631.010000", "182633.010000", "182639.010000", "182647.010000", "182649.010000", "182651.010000", "182655.010000", "182657.010000", "182659.010000", "182703.010000", "182705.010000", "182709.010000", "182715.010000", "182717.010000", "182719.010000", "182727.010000", "182731.010000", "182733.010000", "182735.010000", "182741.010000", "182743.010000", "182747.010000", "182749.010000", "182751.010000", "182755.010000", "182803.010000", "182807.010000", "182809.010000", "182811.010000", "182813.010000", "182815.010000", "182817.010000", "182819.010000", "182823.010000", "182829.010000", "182831.010000", "182833.010000", "182837.010000", "182839.010000", "182845.010000", "182849.010000", "182855.010000", "182905.010000", "182909.010000", "182913.010000", "182915.010000", "182917.010000", "182921.010000", "182923.010000", "182927.010000", "182929.010000", "182935.010000", "182937.010000", "182945.010000", "182947.010000", "182953.010000", "182955.010000", "183001.010000", "183003.010000", "183009.010000", "183011.010000", "183013.010000", "183019.010000", "183021.010000", "183023.010000", "183025.010000", "183027.012500", "183029.012500", "183031.012500", "183037.012500", "183039.012500", "183041.012500", "183043.012500", "183049.012500", "183051.012500", "183057.012500", "183103.012500", "183107.012500", "183109.012500", "183115.012500", "183117.012500", "183119.012500", "183125.012500", "183127.012500", "183131.012500", "183135.012500", "183137.012500", "183139.012500", "183145.012500", "183147.012500", "183149.012500", "183151.012500", "183153.012500", "183211.012500", "183213.012500"],
      "ContentTime": ["182348.353000", "182428.348000", "182428.351000", "182428.354000", "182428.357000", "182428.360000", "182428.379000", "182428.382000", "182428.390000", "182428.396000", "182508.347000", "182508.353000", "182508.366000", "182508.368000", "182508.374000", "182508.382000", "182508.384000", "182508.387000", "182508.392000", "182548.348000", "182548.351000", "182548.359000", "182548.361000", "182548.372000", "182548.374000", "182548.382000", "182548.385000", "182548.388000", "182628.342000", "182628.345000", "182628.348000", "182628.353000", "182628.356000", "182628.362000", "182628.370000", "182628.373000", "182628.376000", "182628.381000", "182628.395000", "182708.344000", "182708.347000", "182708.354000", "182708.365000", "182708.368000", "182708.371000", "182708.376000", "182708.379000", "182708.382000", "182708.388000", "182708.391000", "182748.341000", "182748.349000", "182748.352000", "182748.354000", "182748.365000", "182748.370000", "182748.373000", "182748.375000", "182748.384000", "182748.386000", "182748.392000", "182828.342000", "182828.346000", "182828.352000", "182828.363000", "182828.369000", "182828.372000", "182828.374000", "182828.377000", "182828.380000", "182828.383000", "182828.386000", "182828.391000", "182908.341000", "182908.345000", "182908.351000", "182908.356000", "182908.359000", "182908.368000", "182908.374000", "182908.382000", "182908.396000", "182948.341000", "182948.348000", "182948.351000", "182948.353000", "182948.359000", "182948.362000", "182948.367000", "182948.370000", "182948.378000", "182948.381000", "182948.393000", "182948.395000", "183028.347000", "183028.350000", "183028.358000", "183028.361000", "183028.369000", "183028.372000", "183028.375000", "183028.383000", "183028.386000", "183028.389000", "183028.391000", "183028.394000", "183108.342000", "183108.345000", "183108.354000", "183108.357000", "183108.359000", "183108.362000", "183108.375000", "183108.378000", "183108.386000", "183108.395000", "183108.401000", "183148.340000", "183148.353000", "183148.355000", "183148.358000", "183148.367000", "183148.370000", "183148.375000", "183148.381000", "183148.384000", "183148.387000", "183148.396000", "183148.398000", "183215.712000", "183215.715000", "183215.718000", "183215.752000", "183215.755000"],
      "InstanceCreationTime": ["182348.353000", "182428.348000", "182428.351000", "182428.354000", "182428.357000", "182428.360000", "182428.379000", "182428.382000", "182428.390000", "182428.396000", "182508.347000", "182508.353000", "182508.366000", "182508.368000", "182508.374000", "182508.382000", "182508.384000", "182508.387000", "182508.392000", "182548.348000", "182548.351000", "182548.359000", "182548.361000", "182548.372000", "182548.374000", "182548.382000", "182548.385000", "182548.388000", "182628.342000", "182628.345000", "182628.348000", "182628.353000", "182628.356000", "182628.362000", "182628.370000", "182628.373000", "182628.376000", "182628.381000", "182628.395000", "182708.344000", "182708.347000", "182708.354000", "182708.365000", "182708.368000", "182708.371000", "182708.376000", "182708.379000", "182708.382000", "182708.388000", "182708.391000", "182748.341000", "182748.349000", "182748.352000", "182748.354000", "182748.365000", "182748.370000", "182748.373000", "182748.375000", "182748.384000", "182748.386000", "182748.392000", "182828.342000", "182828.346000", "182828.352000", "182828.363000", "182828.369000", "182828.372000", "182828.374000", "182828.377000", "182828.380000", "182828.383000", "182828.386000", "182828.391000", "182908.341000", "182908.345000", "182908.351000", "182908.356000", "182908.359000", "182908.368000", "182908.374000", "182908.382000", "182908.396000", "182948.341000", "182948.348000", "182948.351000", "182948.353000", "182948.359000", "182948.362000", "182948.367000", "182948.370000", "182948.378000", "182948.381000", "182948.393000", "182948.395000", "183028.347000", "183028.350000", "183028.358000", "183028.361000", "183028.369000", "183028.372000", "183028.375000", "183028.383000", "183028.386000", "183028.389000", "183028.391000", "183028.394000", "183108.342000", "183108.345000", "183108.354000", "183108.357000", "183108.359000", "183108.362000", "183108.375000", "183108.378000", "183108.386000", "183108.395000", "183108.401000", "183148.340000", "183148.353000", "183148.355000", "183148.358000", "183148.367000", "183148.370000", "183148.375000", "183148.381000", "183148.384000", "183148.387000", "183148.396000", "183148.398000", "183215.712000", "183215.715000", "183215.718000", "183215.752000", "183215.755000"],
      "InstanceNumber": [2, 5, 6, 7, 8, 9, 15, 16, 19, 21, 25, 27, 32, 33, 35, 38, 39, 40, 42, 45, 46, 49, 50, 54, 55, 58, 59, 60, 63, 64, 65, 67, 68, 70, 73, 74, 75, 77, 82, 84, 85, 88, 92, 93, 94, 96, 97, 98, 100, 101, 103, 106, 107, 108, 112, 114, 115, 116, 119, 120, 122, 123, 124, 126, 130, 132, 133, 134, 135, 136, 137, 138, 140, 143, 144, 145, 147, 148, 151, 153, 156, 161, 163, 165, 166, 167, 169, 170, 172, 173, 176, 177, 181, 182, 185, 186, 189, 190, 193, 194, 195, 198, 199, 200, 201, 202, 203, 204, 207, 208, 209, 210, 213, 214, 217, 220, 222, 223, 226, 227, 228, 231, 232, 234, 236, 237, 238, 241, 242, 243, 244, 245, 254, 255],
      "LargestImagePixelValue": [777, 741, 823, 715, 730, 799, 793, 795, 830, 790, 739, 810, 732, 823, 747, 711, 800, 763, 776, 756, 803, 810, 759, 737, 786, 815, 780, 764, 736, 730, 790, 763, 741, 728, 736, 732, 797, 732, 737, 810, 778, 754, 732, 798, 746, 821, 765, 737, 741, 815, 735, 769, 739, 722, 787, 776, 757, 732, 731, 769, 814, 728, 732, 731, 756, 716, 741, 765, 807, 734, 771, 745, 764, 729, 756, 763, 748, 790, 764, 764, 793, 781, 733, 732, 744, 802, 749, 725, 756, 765, 760, 773, 767, 735, 730, 784, 741, 751, 729, 742, 750, 741, 747, 767, 762, 737, 777, 747, 732, 766, 772, 797, 754, 765, 729, 740, 743, 745, 796, 764, 737, 751, 735, 779, 770, 750, 727, 788, 799, 766, 788, 725, 761, 725],
      "WindowCenter": [428.0, 426.0, 427.0, 426.0, 427.0, 428.0, 426.0, 426.0, 428.0, 428.0, 427.0, 428.0, 430.0, 430.0, 429.0, 426.0, 427.0, 427.0, 428.0, 428.0, 428.0, 428.0, 427.0, 428.0, 428.0, 427.0, 427.0, 428.0, 428.0, 426.0, 427.0, 426.0, 426.0, 427.0, 428.0, 428.0, 429.0, 428.0, 428.0, 429.0, 430.0, 429.0, 428.0, 428.0, 428.0, 428.0, 429.0, 429.0, 429.0, 430.0, 430.0, 430.0, 430.0, 428.0, 431.0, 432.0, 431.0, 432.0, 432.0, 431.0, 430.0, 430.0, 430.0, 429.0, 430.0, 430.0, 430.0, 430.0, 428.0, 427.0, 427.0, 426.0, 428.0, 430.0, 429.0, 428.0, 428.0, 428.0, 430.0, 432.0, 429.0, 430.0, 429.0, 431.0, 429.0, 429.0, 429.0, 429.0, 428.0, 427.0, 428.0, 429.0, 433.0, 433.0, 432.0, 432.0, 432.0, 432.0, 431.0, 430.0, 431.0, 431.0, 431.0, 430.0, 430.0, 429.0, 429.0, 428.0, 430.0, 429.0, 429.0, 427.0, 427.0, 428.0, 431.0, 432.0, 430.0, 430.0, 432.0, 431.0, 432.0, 432.0, 431.0, 431.0, 430.0, 430.0, 429.0, 431.0, 431.0, 430.0, 429.0, 430.0, 429.0, 428.0],
      "WindowWidth": [898.0, 895.0, 895.0, 895.0, 896.0, 897.0, 894.0, 894.0, 896.0, 897.0, 895.0, 898.0, 901.0, 902.0, 899.0, 894.0, 896.0, 895.0, 898.0, 897.0, 897.0, 897.0, 896.0, 897.0, 896.0, 895.0, 895.0, 897.0, 897.0, 894.0, 895.0, 893.0, 894.0, 895.0, 897.0, 897.0, 898.0, 898.0, 898.0, 899.0, 901.0, 900.0, 898.0, 898.0, 897.0, 897.0, 898.0, 899.0, 899.0, 900.0, 902.0, 901.0, 900.0, 897.0, 903.0, 904.0, 903.0, 904.0, 904.0, 903.0, 900.0, 902.0, 902.0, 899.0, 901.0, 901.0, 902.0, 902.0, 898.0, 896.0, 895.0, 894.0, 897.0, 901.0, 899.0, 897.0, 897.0, 898.0, 902.0, 904.0, 898.0, 900.0, 900.0, 902.0, 900.0, 898.0, 898.0, 899.0, 897.0, 895.0, 897.0, 898.0, 906.0, 907.0, 905.0, 904.0, 905.0, 906.0, 903.0, 902.0, 903.0, 904.0, 904.0, 902.0, 901.0, 899.0, 898.0, 898.0, 900.0, 899.0, 898.0, 895.0, 896.0, 896.0, 904.0, 904.0, 901.0, 902.0, 904.0, 903.0, 905.0, 905.0, 903.0, 902.0, 901.0, 900.0, 899.0, 903.0, 903.0, 901.0, 900.0, 900.0, 899.0, 898.0]
    },
    "slices": {}
  }
}