{
  "AcquisitionMatrixPE": 64,
  "AcquisitionNumber": 1,
  "AcquisitionTime": "17:40:51.375000",
  "BandwidthPerPixelPhaseEncode": 40.064,
  "BaseResolution": 64,
  "BodyPartExamined": "BRAIN",
  "ConsistencyInfo": "N4_VD13D_LATEST_20130810",
  "ConversionSoftware": "dcm2niix",
  "ConversionSoftwareVersion": "v1.0.20191031",
  "DerivedVendorReportedEchoSpacing": 0.000780002,
  "DeviceSerialNumber": "67007",
  "DwellTime": 5.3e-06,
  "EchoTime": 0.03,
  "EchoTrainLength": 31,
  "EffectiveEchoSpacing": 0.000390001,
  "FlipAngle": 75,
  "ImageOrientationPatientDICOM": [0.99932, -0.029433, 0.0222249, 0.034897, 0.949593, -0.311538],
  "ImageType": [
    "ORIGINAL",
    "PRIMARY",
    "M",
    "ND",
    "NORM",
    "MOSAIC"
],
  "ImagingFrequency": 123.21,
  "InPlanePhaseEncodingDirectionDICOM": "ROW",
  "InstitutionAddress": "Perth_Drive_100_London_Ontario_CA_N6A_5K8",
  "InstitutionName": "Robarts-CFMM",
  "InstitutionalDepartmentName": "CFMM",
  "MRAcquisitionType": "2D",
  "MagneticFieldStrength": 3,
  "Manufacturer": "Siemens",
  "ManufacturersModelName": "Prisma_fit",
  "Modality": "MR",
  "ParallelReductionFactorInPlane": 2,
  "PartialFourier": 1,
  "PatientPosition": "HFS",
  "PercentPhaseFOV": 100,
  "PhaseEncodingDirection": "i",
  "PhaseEncodingSteps": 63,
  "PhaseResolution": 1,
  "PixelBandwidth": 1475,
  "ProcedureStepDescription": "Owen_Naci",
  "ProtocolName": "taken_deep_sed",
  "PulseSequenceDetails": "%SiemensSeq%_ep2d_bold",
  "ReceiveCoilActiveElements": "HEA;HEP",
  "ReceiveCoilName": "Head_32",
  "ReconMatrixPE": 64,
  "RefLinesPE": 24,
  "RepetitionTime": 2,
  "SAR": 0.084685,
  "ScanOptions": "FS",
  "ScanningSequence": "EP",
  "SequenceName": "_epfid2d1_64",
  "SequenceVariant": "SK",
  "SeriesDescription": "taken_deep_sed",
  "SeriesNumber": 11,
  "ShimSetting": [5245, -6140, -3832, 270, -17, -122, -27, 14],
  "SliceThickness": 3,
  "SliceTiming": [1.92, 1.86, 1.8, 1.74, 1.68, 1.62, 1.56, 1.5, 1.44, 1.38, 1.32, 1.26, 1.2, 1.14, 1.08, 1.02, 0.96, 0.9, 0.84, 0.78, 0.72, 0.66, 0.6, 0.54, 0.48, 0.42, 0.36, 0.3, 0.24, 0.18, 0.12, 0.06, 0],
  "SoftwareVersions": "syngo_MR_D13D",
  "SpacingBetweenSlices": 3.75,
  "StationName": "AWP67007",
  "TaskName": "audiodeep",
  "TotalReadoutTime": 0.0245701,
  "TxRefAmp": 253.945,
  "dcmmeta_affine": [
    [-2.9979588985443115, 0.1046910434961319, 0.04475642740726471, 93.71014404296875],
    [0.08829907327890396, 2.848778009414673, -1.1703815460205078, -54.875518798828125],
    [0.06667455285787582, 0.9346143007278442, 3.562401533126831, -87.03402709960938],
    [0.0, 0.0, 0.0, 1.0]
],
  "dcmmeta_reorient_transform": [
    [0.0, -1.0, 0.0, 63.0],
    [1.0, 0.0, 0.0, 0.0],
    [0.0, 0.0, 1.0, 0.0],
    [0.0, 0.0, 0.0, 1.0]
],
  "dcmmeta_shape": [64, 64, 33, 155],
  "dcmmeta_slice_dim": 2,
  "dcmmeta_version": 0.6,
  "global": {
    "const": {
      "AcquisitionMatrix": [0, 64, 64, 0],
      "AngioFlag": "N",
      "BitsAllocated": 16,
      "BitsStored": 12,
      "BodyPartExamined": "BRAIN",
      "Columns": 384,
      "EchoNumbers": 1,
      "EchoTime": 30.0,
      "EchoTrainLength": 31,
      "FlipAngle": 75.0,
      "HighBit": 11,
      "ImageOrientationPatient": [0.99931964510563, -0.0294330235543, 0.02222485164003, 0.03489701348822, 0.94959265263866, -0.3115381076278],
      "ImagePositionPatient": [-596.72967247294, -566.2741152369, 110.71704058199],
      "ImageType": [
        "ORIGINAL",
        "PRIMARY",
        "M",
        "ND",
        "NORM",
        "MOSAIC"
],
      "ImagedNucleus": "1H",
      "ImagingFrequency": 123.210412,
      "InPlanePhaseEncodingDirection": "ROW",
      "MRAcquisitionType": "2D",
      "MagneticFieldStrength": 3.0,
      "Manufacturer": "SIEMENS",
      "ManufacturerModelName": "Prisma_fit",
      "Modality": "MR",
      "NumberOfAverages": 1.0,
      "NumberOfPhaseEncodingSteps": 63,
      "PercentPhaseFieldOfView": 100.0,
      "PercentSampling": 100.0,
      "PerformedProcedureStepStartTime": "162835.248000",
      "PhotometricInterpretation": "MONOCHROME2",
      "PixelBandwidth": 1475.0,
      "PixelRepresentation": 0,
      "PixelSpacing": [3.0, 3.0],
      "ProtocolName": "taken_deep_sed",
      "RepetitionTime": 2000.0,
      "Rows": 384,
      "SAR": 0.08468500112895,
      "SamplesPerPixel": 1,
      "ScanOptions": "FS",
      "ScanningSequence": "EP",
      "SequenceName": "*epfid2d1_64",
      "SequenceVariant": "SK",
      "SeriesDescription": "taken_deep_sed",
      "SeriesNumber": 11,
      "SeriesTime": "174100.846000",
      "SliceLocation": -64.434856699476,
      "SliceThickness": 3.0,
      "SmallestImagePixelValue": 0,
      "SoftwareVersions": "syngo MR D13D",
      "SpacingBetweenSlices": 3.7500000545764,
      "SpecificCharacterSet": "ISO_IR 100",
      "StudyID": "1",
      "StudyTime": "162835.183000",
      "TimeOfLastCalibration": ["123723.000000", "123723.000000"],
      "TransmitCoilName": "Body",
      "VariableFlipAngleFlag": "N",
      "WindowCenterWidthExplanation": "Algo1",
      "dBdt": 0.0},
    "slices": {}
  },
  "time": {
    "samples": {
      "AcquisitionNumber": [1, 2, 3, 4, 5, 6, 7, 8, 9, 10, 11, 12, 13, 14, 15, 16, 17, 18, 19, 20, 21, 22, 23, 24, 25, 26, 27, 28, 29, 30, 31, 32, 33, 34, 35, 36, 37, 38, 39, 40, 41, 42, 43, 44, 45, 46, 47, 48, 49, 50, 51, 52, 53, 54, 55, 56, 57, 58, 59, 60, 61, 62, 63, 64, 65, 66, 67, 68, 69, 70, 71, 72, 73, 74, 75, 76, 77, 78, 79, 80, 81, 82, 83, 84, 85, 86, 87, 88, 89, 90, 91, 92, 93, 94, 95, 96, 97, 98, 99, 100, 101, 102, 103, 104, 105, 106, 107, 108, 109, 110, 111, 112, 113, 114, 115, 116, 117, 118, 119, 120, 121, 122, 123, 124, 125, 126, 127, 128, 129, 130, 131, 132, 133, 134, 135, 136, 137, 138, 139, 140, 141, 142, 143, 144, 145, 146, 147, 148, 149, 150, 151, 152, 153, 154, 155],
      "AcquisitionTime": ["174051.375000", "174053.375000", "174055.375000", "174057.375000", "174059.375000", "174101.375000", "174103.375000", "174105.375000", "174107.375000", "174109.375000", "174111.375000", "174113.375000", "174115.375000", "174117.375000", "174119.375000", "174121.375000", "174123.375000", "174125.375000", "174127.375000", "174129.375000", "174131.375000", "174133.375000", "174135.375000", "174137.375000", "174139.375000", "174141.375000", "174143.375000", "174145.375000", "174147.375000", "174149.375000", "174151.375000", "174153.375000", "174155.375000", "174157.375000", "174159.375000", "174201.375000", "174203.375000", "174205.375000", "174207.375000", "174209.375000", "174211.375000", "174213.375000", "174215.375000", "174217.375000", "174219.375000", "174221.375000", "174223.375000", "174225.375000", "174227.375000", "174229.375000", "174231.375000", "174233.375000", "174235.375000", "174237.375000", "174239.375000", "174241.375000", "174243.375000", "174245.375000", "174247.375000", "174249.375000", "174251.375000", "174253.375000", "174255.375000", "174257.375000", "174259.375000", "174301.375000", "174303.375000", "174305.375000", "174307.375000", "174309.375000", "174311.375000", "174313.375000", "174315.375000", "174317.375000", "174319.375000", "174321.375000", "174323.375000", "174325.377500", "174327.377500", "174329.377500", "174331.377500", "174333.377500", "174335.377500", "174337.377500", "174339.377500", "174341.377500", "174343.377500", "174345.377500", "174347.377500", "174349.377500", "174351.377500", "174353.377500", "174355.377500", "174357.377500", "174359.377500", "174401.377500", "174403.377500", "174405.377500", "174407.377500", "174409.377500", "174411.377500", "174413.377500", "174415.377500", "174417.377500", "174419.377500", "174421.377500", "174423.377500", "174425.377500", "174427.377500", "174429.377500", "174431.377500", "174433.377500", "174435.377500", "174437.377500", "174439.377500", "174441.377500", "174443.377500", "174445.377500", "174447.377500", "174449.377500", "174451.377500", "174453.377500", "174455.377500", "174457.377500", "174459.377500", "174501.377500", "174503.377500", "174505.377500", "174507.377500", "174509.377500", "174511.377500", "174513.377500", "174515.377500", "174517.377500", "174519.377500", "174521.377500", "174523.377500", "174525.377500", "174527.377500", "174529.377500", "174531.377500", "174533.377500", "174535.377500", "174537.377500", "174539.377500", "174541.377500", "174543.377500", "174545.377500", "174547.377500", "174549.377500", "174551.377500", "174553.377500", "174555.377500", "174557.377500", "174559.377500"],
      "ContentTime": ["174100.850000", "174100.854000", "174100.857000", "174100.860000", "174100.863000", "174140.844000", "174140.848000", "174140.851000", "174140.853000", "174140.856000", "174140.859000", "174140.862000", "174140.865000", "174140.867000", "174140.870000", "174140.873000", "174140.876000", "174140.879000", "174140.882000", "174140.885000", "174140.887000", "174140.890000", "174140.893000", "174140.896000", "174140.898000", "174220.844000", "174220.848000", "174220.851000", "174220.853000", "174220.856000", "174220.859000", "174220.862000", "174220.864000", "174220.867000", "174220.870000", "174220.873000", "174220.876000", "174220.879000", "174220.882000", "174220.884000", "174220.887000", "174220.890000", "174220.893000", "174220.896000", "174220.898000", "174300.844000", "174300.852000", "174300.855000", "174300.857000", "174300.860000", "174300.864000", "174300.867000", "174300.869000", "174300.872000", "174300.876000", "174300.879000", "174300.882000", "174300.884000", "174300.888000", "174300.890000", "174300.893000", "174300.896000", "174300.899000", "174300.902000", "174300.905000", "174340.844000", "174340.848000", "174340.851000", "174340.853000", "174340.856000", "174340.859000", "174340.862000", "174340.865000", "174340.868000", "174340.871000", "174340.873000", "174340.876000", "174340.879000", "174340.882000", "174340.885000", "174340.888000", "174340.891000", "174340.893000", "174340.896000", "174340.899000", "174400.844000", "174400.848000", "174400.850000", "174400.853000", "174400.856000", "174400.859000", "174400.862000", "174400.865000", "174400.868000", "174400.871000", "174440.844000", "174440.848000", "174440.850000", "174440.853000", "174440.856000", "174440.859000", "174440.862000", "174440.865000", "174440.868000", "174440.871000", "174440.873000", "174440.876000", "174440.879000", "174440.882000", "174440.885000", "174440.888000", "174440.891000", "174440.894000", "174440.896000", "174440.899000", "174520.844000", "174520.848000", "174520.851000", "174520.854000", "174520.856000", "174520.859000", "174520.862000", "174520.865000", "174520.868000", "174520.871000", "174520.874000", "174520.876000", "174520.879000", "174520.882000", "174520.885000", "174520.888000", "174520.891000", "174520.894000", "174520.897000", "174520.900000", "174600.097000", "174600.102000", "174600.106000", "174600.108000", "174600.111000", "174600.114000", "174600.117000", "174600.120000", "174600.123000", "174600.126000", "174600.129000", "174600.134000", "174600.138000", "174600.142000", "174600.146000", "174600.149000", "174600.152000", "174600.154000", "174600.157000", "174600.160000"],
      "InstanceCreationTime": ["174100.850000", "174100.854000", "174100.857000", "174100.860000", "174100.863000", "174140.844000", "174140.848000", "174140.851000", "174140.853000", "174140.856000", "174140.859000", "174140.862000", "174140.865000", "174140.867000", "174140.870000", "174140.873000", "174140.876000", "174140.879000", "174140.882000", "174140.885000", "174140.887000", "174140.890000", "174140.893000", "174140.896000", "174140.898000", "174220.844000", "174220.848000", "174220.851000", "174220.853000", "174220.856000", "174220.859000", "174220.862000", "174220.864000", "174220.867000", "174220.870000", "174220.873000", "174220.876000", "174220.879000", "174220.882000", "174220.884000", "174220.887000", "174220.890000", "174220.893000", "174220.896000", "174220.898000", "174300.844000", "174300.852000", "174300.855000", "174300.857000", "174300.860000", "174300.864000", "174300.867000", "174300.869000", "174300.872000", "174300.876000", "174300.879000", "174300.882000", "174300.884000", "174300.888000", "174300.890000", "174300.893000", "174300.896000", "174300.899000", "174300.902000", "174300.905000", "174340.844000", "174340.848000", "174340.851000", "174340.853000", "174340.856000", "174340.859000", "174340.862000", "174340.865000", "174340.868000", "174340.871000", "174340.873000", "174340.876000", "174340.879000", "174340.882000", "174340.885000", "174340.888000", "174340.891000", "174340.893000", "174340.896000", "174340.899000", "174400.844000", "174400.848000", "174400.850000", "174400.853000", "174400.856000", "174400.859000", "174400.862000", "174400.865000", "174400.868000", "174400.871000", "174440.844000", "174440.848000", "174440.850000", "174440.853000", "174440.856000", "174440.859000", "174440.862000", "174440.865000", "174440.868000", "174440.871000", "174440.873000", "174440.876000", "174440.879000", "174440.882000", "174440.885000", "174440.888000", "174440.891000", "174440.894000", "174440.896000", "174440.899000", "174520.844000", "174520.848000", "174520.851000", "174520.854000", "174520.856000", "174520.859000", "174520.862000", "174520.865000", "174520.868000", "174520.871000", "174520.874000", "174520.876000", "174520.879000", "174520.882000", "174520.885000", "174520.888000", "174520.891000", "174520.894000", "174520.897000", "174520.900000", "174600.097000", "174600.102000", "174600.106000", "174600.108000", "174600.111000", "174600.114000", "174600.117000", "174600.120000", "174600.123000", "174600.126000", "174600.129000", "174600.134000", "174600.138000", "174600.142000", "174600.146000", "174600.149000", "174600.152000", "174600.154000", "174600.157000", "174600.160000"],
      "InstanceNumber": [1, 2, 3, 4, 5, 6, 7, 8, 9, 10, 11, 12, 13, 14, 15, 16, 17, 18, 19, 20, 21, 22, 23, 24, 25, 26, 27, 28, 29, 30, 31, 32, 33, 34, 35, 36, 37, 38, 39, 40, 41, 42, 43, 44, 45, 46, 47, 48, 49, 50, 51, 52, 53, 54, 55, 56, 57, 58, 59, 60, 61, 62, 63, 64, 65, 66, 67, 68, 69, 70, 71, 72, 73, 74, 75, 76, 77, 78, 79, 80, 81, 82, 83, 84, 85, 86, 87, 88, 89, 90, 91, 92, 93, 94, 95, 96, 97, 98, 99, 100, 101, 102, 103, 104, 105, 106, 107, 108, 109, 110, 111, 112, 113, 114, 115, 116, 117, 118, 119, 120, 121, 122, 123, 124, 125, 126, 127, 128, 129, 130, 131, 132, 133, 134, 135, 136, 137, 138, 139, 140, 141, 142, 143, 144, 145, 146, 147, 148, 149, 150, 151, 152, 153, 154, 155],
      "LargestImagePixelValue": [710, 711, 957, 712, 723, 871, 728, 719, 939, 728, 765, 723, 802, 787, 723, 933, 789, 722, 703, 849, 904, 785, 770, 799, 714, 783, 723, 728, 995, 707, 723, 857, 719, 796, 1055, 729, 728, 906, 709, 725, 824, 724, 849, 933, 841, 922, 961, 738, 797, 735, 704, 723, 784, 916, 700, 721, 923, 807, 809, 728, 835, 958, 937, 808, 742, 738, 695, 767, 920, 985, 770, 819, 715, 798, 875, 904, 845, 710, 728, 752, 753, 737, 753, 700, 855, 913, 706, 851, 940, 713, 907, 859, 987, 724, 742, 949, 979, 785, 790, 799, 725, 772, 735, 698, 739, 970, 1008, 869, 805, 799, 749, 713, 769, 1041, 759, 905, 792, 796, 866, 769, 741, 705, 784, 986, 984, 726, 783, 847, 782, 742, 744, 729, 766, 841, 738, 710, 707, 789, 962, 908, 745, 877, 783, 739, 744, 922, 869, 765, 777, 916, 713, 813, 836, 734, 708],
      "WindowCenter": [377.0, 377.0, 379.0, 376.0, 377.0, 379.0, 377.0, 377.0, 380.0, 378.0, 378.0, 377.0, 379.0, 379.0, 378.0, 380.0, 379.0, 377.0, 379.0, 380.0, 380.0, 379.0, 378.0, 379.0, 378.0, 379.0, 378.0, 379.0, 381.0, 378.0, 378.0, 380.0, 378.0, 379.0, 381.0, 378.0, 378.0, 381.0, 378.0, 379.0, 380.0, 380.0, 381.0, 382.0, 381.0, 382.0, 382.0, 380.0, 380.0, 379.0, 380.0, 380.0, 380.0, 381.0, 380.0, 381.0, 382.0, 380.0, 380.0, 380.0, 381.0, 381.0, 381.0, 380.0, 379.0, 379.0, 380.0, 381.0, 382.0, 382.0, 380.0, 380.0, 381.0, 381.0, 381.0, 381.0, 380.0, 379.0, 379.0, 379.0, 380.0, 379.0, 380.0, 380.0, 381.0, 382.0, 380.0, 382.0, 382.0, 380.0, 382.0, 381.0, 382.0, 379.0, 380.0, 381.0, 381.0, 380.0, 379.0, 379.0, 378.0, 379.0, 379.0, 378.0, 380.0, 382.0, 382.0, 380.0, 380.0, 379.0, 380.0, 380.0, 381.0, 383.0, 381.0, 382.0, 380.0, 380.0, 380.0, 379.0, 378.0, 379.0, 381.0, 382.0, 381.0, 378.0, 379.0, 379.0, 378.0, 378.0, 377.0, 378.0, 378.0, 379.0, 378.0, 378.0, 378.0, 380.0, 381.0, 380.0, 379.0, 380.0, 378.0, 378.0, 380.0, 382.0, 380.0, 379.0, 380.0, 381.0, 380.0, 380.0, 380.0, 378.0, 379.0],
      "WindowWidth": [801.0, 801.0, 802.0, 799.0, 800.0, 803.0, 801.0, 801.0, 804.0, 802.0, 802.0, 801.0, 803.0, 803.0, 802.0, 805.0, 803.0, 801.0, 803.0, 805.0, 805.0, 803.0, 802.0, 803.0, 802.0, 803.0, 802.0, 803.0, 807.0, 802.0, 802.0, 805.0, 802.0, 804.0, 807.0, 802.0, 802.0, 806.0, 802.0, 803.0, 806.0, 805.0, 807.0, 809.0, 807.0, 808.0, 808.0, 805.0, 805.0, 804.0, 805.0, 805.0, 806.0, 808.0, 805.0, 807.0, 808.0, 806.0, 806.0, 805.0, 807.0, 807.0, 806.0, 806.0, 804.0, 803.0, 805.0, 808.0, 809.0, 809.0, 806.0, 806.0, 807.0, 807.0, 808.0, 807.0, 805.0, 804.0, 804.0, 804.0, 805.0, 804.0, 805.0, 805.0, 807.0, 808.0, 806.0, 808.0, 808.0, 806.0, 808.0, 807.0, 807.0, 804.0, 805.0, 807.0, 807.0, 805.0, 804.0, 803.0, 802.0, 804.0, 803.0, 803.0, 805.0, 809.0, 809.0, 806.0, 804.0, 804.0, 805.0, 805.0, 808.0, 810.0, 807.0, 808.0, 806.0, 805.0, 805.0, 803.0, 802.0, 804.0, 806.0, 808.0, 806.0, 803.0, 803.0, 804.0, 802.0, 801.0, 801.0, 801.0, 802.0, 804.0, 802.0, 802.0, 803.0, 806.0, 808.0, 805.0, 804.0, 805.0, 802.0, 802.0, 805.0, 808.0, 806.0, 804.0, 805.0, 807.0, 805.0, 806.0, 806.0, 802.0, 804.0]
    },
    "slices": {}
  }
}