{
  "AcquisitionMatrixPE": 64,
  "AcquisitionNumber": 1,
  "AcquisitionTime": "20:02:35.985000",
  "BandwidthPerPixelPhaseEncode": 40.064,
  "BaseResolution": 64,
  "BodyPartExamined": "BRAIN",
  "ConsistencyInfo": "N4_VD13D_LATEST_20130810",
  "ConversionSoftware": "dcm2niix",
  "ConversionSoftwareVersion": "v1.0.20191031",
  "DerivedVendorReportedEchoSpacing": 0.000780002,
  "DeviceSerialNumber": "67007",
  "DwellTime": 5.3e-06,
  "EchoTime": 0.03,
  "EchoTrainLength": 31,
  "EffectiveEchoSpacing": 0.000390001,
  "FlipAngle": 75,
  "ImageOrientationPatientDICOM": [0.999945, -0.00811917, 0.00659954, 0.00872639, 0.995159, -0.0978935],
  "ImageType": [
    "ORIGINAL",
    "PRIMARY",
    "M",
    "ND",
    "NORM",
    "MOSAIC"
],
  "ImagingFrequency": 123.211,
  "InPlanePhaseEncodingDirectionDICOM": "ROW",
  "InstitutionAddress": "Perth_Drive_100_London_Ontario_CA_N6A_5K8",
  "InstitutionName": "Robarts_Research_Institute",
  "InstitutionalDepartmentName": "CFMM",
  "MRAcquisitionType": "2D",
  "MagneticFieldStrength": 3,
  "Manufacturer": "Siemens",
  "ManufacturersModelName": "Prisma_fit",
  "Modality": "MR",
  "ParallelReductionFactorInPlane": 2,
  "PartialFourier": 1,
  "PatientPosition": "HFS",
  "PercentPhaseFOV": 100,
  "PhaseEncodingDirection": "i",
  "PhaseEncodingSteps": 63,
  "PhaseResolution": 1,
  "PixelBandwidth": 1475,
  "ProcedureStepDescription": "Owen_Naci",
  "ProtocolName": "Resting_State_recovery",
  "PulseSequenceDetails": "%SiemensSeq%_ep2d_bold",
  "ReceiveCoilActiveElements": "HEA;HEP",
  "ReceiveCoilName": "Head_32",
  "ReconMatrixPE": 64,
  "RefLinesPE": 24,
  "RepetitionTime": 2,
  "SAR": 0.0989456,
  "ScanOptions": "FS",
  "ScanningSequence": "EP",
  "SequenceName": "_epfid2d1_64",
  "SequenceVariant": "SK",
  "SeriesDescription": "Resting_State_recovery",
  "SeriesNumber": 22,
  "ShimSetting": [5228, -6231, -3842, 426, 26, -407, 171, 65],
  "SliceThickness": 3,
  "SliceTiming": [1.92, 1.86, 1.8, 1.74, 1.68, 1.62, 1.56, 1.5, 1.44, 1.38, 1.32, 1.26, 1.2, 1.14, 1.08, 1.02, 0.96, 0.9, 0.84, 0.78, 0.72, 0.66, 0.6, 0.54, 0.48, 0.42, 0.36, 0.3, 0.24, 0.18, 0.12, 0.06, 0],
  "SoftwareVersions": "syngo_MR_D13D",
  "SpacingBetweenSlices": 3.75,
  "StationName": "AWP67007",
  "TaskName": "restrecovery",
  "TotalReadoutTime": 0.0245701,
  "TxRefAmp": 265.526,
  "dcmmeta_affine": [
    [-2.999835729598999, 0.026179170235991478, 0.021647922694683075, 93.91796112060547],
    [0.02435750514268875, 2.985476016998291, -0.367296427488327, -70.7354736328125],
    [0.019798630848526955, 0.29368045926094055, 3.7319061756134033, -62.25905990600586],
    [0.0, 0.0, 0.0, 1.0]
],
  "dcmmeta_reorient_transform": [
    [0.0, -1.0, 0.0, 63.0],
    [1.0, 0.0, 0.0, 0.0],
    [0.0, 0.0, 1.0, 0.0],
    [0.0, 0.0, 0.0, 1.0]
],
  "dcmmeta_shape": [64, 64, 33, 256],
  "dcmmeta_slice_dim": 2,
  "dcmmeta_version": 0.6,
  "global": {
    "const": {
      "AcquisitionMatrix": [0, 64, 64, 0],
      "AngioFlag": "N",
      "BitsAllocated": 16,
      "BitsStored": 12,
      "BodyPartExamined": "BRAIN",
      "Columns": 384,
      "EchoNumbers": 1,
      "EchoTime": 30.0,
      "EchoTrainLength": 31,
      "FlipAngle": 75.0,
      "HighBit": 11,
      "ImageOrientationPatient": [0.99994526106669, -0.0081191681652, 0.00659954381598, 0.00872639037563, 0.99515863808735, -0.0978934888087],
      "ImagePositionPatient": [-579.72964462822, -591.1284579723, 0.06390423475376],
      "ImageType": [
        "ORIGINAL",
        "PRIMARY",
        "M",
        "ND",
        "NORM",
        "MOSAIC"
],
      "ImagedNucleus": "1H",
      "ImagingFrequency": 123.211276,
      "InPlanePhaseEncodingDirection": "ROW",
      "MRAcquisitionType": "2D",
      "MagneticFieldStrength": 3.0,
      "Manufacturer": "SIEMENS",
      "ManufacturerModelName": "Prisma_fit",
      "Modality": "MR",
      "NumberOfAverages": 1.0,
      "NumberOfPhaseEncodingSteps": 63,
      "PercentPhaseFieldOfView": 100.0,
      "PercentSampling": 100.0,
      "PerformedProcedureStepStartTime": "180503.802000",
      "PhotometricInterpretation": "MONOCHROME2",
      "PixelBandwidth": 1475.0,
      "PixelRepresentation": 0,
      "PixelSpacing": [3.0, 3.0],
      "ProtocolName": "Resting State_recovery",
      "RepetitionTime": 2000.0,
      "Rows": 384,
      "SAR": 0.09894555853665,
      "SamplesPerPixel": 1,
      "ScanOptions": "FS",
      "ScanningSequence": "EP",
      "SequenceName": "*epfid2d1_64",
      "SequenceVariant": "SK",
      "SeriesDescription": "Resting State_recovery",
      "SeriesNumber": 22,
      "SeriesTime": "200329.852000",
      "SliceLocation": -54.488255464454,
      "SliceThickness": 3.0,
      "SmallestImagePixelValue": 0,
      "SoftwareVersions": "syngo MR D13D",
      "SpacingBetweenSlices": 3.7499998698128,
      "SpecificCharacterSet": "ISO_IR 100",
      "StudyID": "1",
      "StudyTime": "180503.692000",
      "TimeOfLastCalibration": ["123723.000000", "123723.000000"],
      "TransmitCoilName": "Body",
      "VariableFlipAngleFlag": "N",
      "WindowCenterWidthExplanation": "Algo1",
      "dBdt": 0.0},
    "slices": {}
  },
  "time": {
    "samples": {
      "AcquisitionNumber": [1, 2, 3, 4, 5, 6, 7, 8, 9, 10, 11, 12, 13, 14, 15, 16, 17, 18, 19, 20, 21, 22, 23, 24, 25, 26, 27, 28, 29, 30, 31, 32, 33, 34, 35, 36, 37, 38, 39, 40, 41, 42, 43, 44, 45, 46, 47, 48, 49, 50, 51, 52, 53, 54, 55, 56, 57, 58, 59, 60, 61, 62, 63, 64, 65, 66, 67, 68, 69, 70, 71, 72, 73, 74, 75, 76, 77, 78, 79, 80, 81, 82, 83, 84, 85, 86, 87, 88, 89, 90, 91, 92, 93, 94, 95, 96, 97, 98, 99, 100, 101, 102, 103, 104, 105, 106, 107, 108, 109, 110, 111, 112, 113, 114, 115, 116, 117, 118, 119, 120, 121, 122, 123, 124, 125, 126, 127, 128, 129, 130, 131, 132, 133, 134, 135, 136, 137, 138, 139, 140, 141, 142, 143, 144, 145, 146, 147, 148, 149, 150, 151, 152, 153, 154, 155, 156, 157, 158, 159, 160, 161, 162, 163, 164, 165, 166, 167, 168, 169, 170, 171, 172, 173, 174, 175, 176, 177, 178, 179, 180, 181, 182, 183, 184, 185, 186, 187, 188, 189, 190, 191, 192, 193, 194, 195, 196, 197, 198, 199, 200, 201, 202, 203, 204, 205, 206, 207, 208, 209, 210, 211, 212, 213, 214, 215, 216, 217, 218, 219, 220, 221, 222, 223, 224, 225, 226, 227, 228, 229, 230, 231, 232, 233, 234, 235, 236, 237, 238, 239, 240, 241, 242, 243, 244, 245, 246, 247, 248, 249, 250, 251, 252, 253, 254, 255, 256],
      "AcquisitionTime": ["200235.985000", "200237.985000", "200239.985000", "200241.985000", "200243.985000", "200245.985000", "200247.985000", "200249.985000", "200251.985000", "200253.985000", "200255.985000", "200257.985000", "200259.985000", "200301.985000", "200303.985000", "200305.985000", "200307.985000", "200309.985000", "200311.985000", "200313.985000", "200315.985000", "200317.985000", "200319.985000", "200321.985000", "200323.985000", "200325.985000", "200327.985000", "200329.985000", "200331.985000", "200333.985000", "200335.985000", "200337.985000", "200339.985000", "200341.985000", "200343.985000", "200345.985000", "200347.985000", "200349.985000", "200351.985000", "200353.985000", "200355.985000", "200357.985000", "200359.985000", "200401.985000", "200403.985000", "200405.985000", "200407.985000", "200409.985000", "200411.985000", "200413.985000", "200415.985000", "200417.985000", "200419.985000", "200421.985000", "200423.985000", "200425.985000", "200427.985000", "200429.985000", "200431.985000", "200433.985000", "200435.985000", "200437.985000", "200439.985000", "200441.985000", "200443.985000", "200445.985000", "200447.985000", "200449.985000", "200451.985000", "200453.985000", "200455.985000", "200457.985000", "200459.985000", "200501.985000", "200503.985000", "200505.985000", "200507.985000", "200509.985000", "200511.985000", "200513.985000", "200515.985000", "200517.985000", "200519.985000", "200521.985000", "200523.985000", "200525.985000", "200527.985000", "200529.985000", "200531.985000", "200533.985000", "200535.985000", "200537.985000", "200539.985000", "200541.985000", "200543.985000", "200545.985000", "200547.985000", "200549.985000", "200551.985000", "200553.985000", "200555.985000", "200557.985000", "200559.985000", "200601.985000", "200603.985000", "200605.985000", "200607.985000", "200609.985000", "200611.985000", "200613.985000", "200615.985000", "200617.985000", "200619.985000", "200621.985000", "200623.985000", "200625.985000", "200627.985000", "200629.985000", "200631.985000", "200633.985000", "200635.985000", "200637.985000", "200639.985000", "200641.985000", "200643.985000", "200645.985000", "200647.985000", "200649.985000", "200651.985000", "200653.985000", "200655.985000", "200657.985000", "200659.985000", "200701.985000", "200703.985000", "200705.985000", "200707.985000", "200709.985000", "200711.985000", "200713.985000", "200715.985000", "200717.985000", "200719.985000", "200721.985000", "200723.985000", "200725.985000", "200727.985000", "200729.985000", "200731.985000", "200733.985000", "200735.985000", "200737.985000", "200739.985000", "200741.985000", "200743.985000", "200745.985000", "200747.985000", "200749.985000", "200751.985000", "200753.985000", "200755.985000", "200757.985000", "200759.985000", "200801.985000", "200803.985000", "200805.985000", "200807.985000", "200809.985000", "200811.985000", "200813.985000", "200815.985000", "200817.985000", "200819.987500", "200821.987500", "200823.987500", "200825.987500", "200827.987500", "200829.987500", "200831.987500", "200833.987500", "200835.987500", "200837.987500", "200839.987500", "200841.987500", "200843.987500", "200845.987500", "200847.987500", "200849.987500", "200851.987500", "200853.987500", "200855.987500", "200857.987500", "200859.987500", "200901.987500", "200903.987500", "200905.987500", "200907.987500", "200909.987500", "200911.987500", "200913.987500", "200915.987500", "200917.987500", "200919.987500", "200921.987500", "200923.987500", "200925.987500", "200927.987500", "200929.987500", "200931.987500", "200933.987500", "200935.987500", "200937.987500", "200939.987500", "200941.987500", "200943.987500", "200945.987500", "200947.987500", "200949.987500", "200951.987500", "200953.987500", "200955.987500", "200957.987500", "200959.987500", "201001.987500", "201003.987500", "201005.987500", "201007.987500", "201009.987500", "201011.987500", "201013.987500", "201015.987500", "201017.987500", "201019.987500", "201021.987500", "201023.987500", "201025.987500", "201027.987500", "201029.987500", "201031.987500", "201033.987500", "201035.987500", "201037.987500", "201039.987500", "201041.987500", "201043.987500", "201045.987500", "201047.987500", "201049.987500", "201051.987500", "201053.987500", "201055.987500", "201057.987500", "201059.987500", "201101.987500", "201103.987500", "201105.987500"],
      "ContentTime": ["200329.858000", "200329.862000", "200329.864000", "200329.867000", "200329.869000", "200329.872000", "200329.875000", "200329.877000", "200329.880000", "200329.883000", "200329.885000", "200329.888000", "200329.890000", "200329.893000", "200329.895000", "200329.898000", "200329.901000", "200329.903000", "200329.906000", "200329.908000", "200329.911000", "200329.914000", "200329.916000", "200329.919000", "200329.922000", "200329.924000", "200329.927000", "200409.852000", "200409.855000", "200409.858000", "200409.861000", "200409.864000", "200409.867000", "200409.870000", "200409.872000", "200409.875000", "200409.877000", "200409.880000", "200409.883000", "200409.885000", "200409.888000", "200409.890000", "200409.893000", "200409.896000", "200409.898000", "200409.901000", "200409.903000", "200449.851000", "200449.855000", "200449.858000", "200449.860000", "200449.863000", "200449.866000", "200449.869000", "200449.872000", "200449.875000", "200449.877000", "200449.880000", "200449.883000", "200449.886000", "200449.889000", "200449.891000", "200449.894000", "200449.897000", "200449.900000", "200449.903000", "200449.905000", "200529.852000", "200529.856000", "200529.859000", "200529.861000", "200529.864000", "200529.867000", "200529.869000", "200529.872000", "200529.875000", "200529.877000", "200529.880000", "200529.883000", "200529.886000", "200529.888000", "200529.891000", "200529.894000", "200529.896000", "200529.899000", "200529.902000", "200529.904000", "200609.852000", "200609.856000", "200609.858000", "200609.861000", "200609.864000", "200609.867000", "200609.870000", "200609.873000", "200609.876000", "200609.878000", "200609.881000", "200609.884000", "200609.887000", "200609.890000", "200609.892000", "200609.895000", "200609.898000", "200609.901000", "200609.904000", "200609.907000", "200649.851000", "200649.854000", "200649.857000", "200649.860000", "200649.862000", "200649.865000", "200649.868000", "200649.871000", "200649.874000", "200649.877000", "200649.879000", "200649.882000", "200649.885000", "200649.888000", "200649.890000", "200649.893000", "200649.896000", "200649.898000", "200649.901000", "200649.904000", "200729.851000", "200729.854000", "200729.857000", "200729.859000", "200729.862000", "200729.865000", "200729.867000", "200729.870000", "200729.873000", "200729.875000", "200729.878000", "200729.880000", "200729.883000", "200729.886000", "200729.888000", "200729.891000", "200729.894000", "200729.896000", "200729.899000", "200729.901000", "200809.852000", "200809.855000", "200809.858000", "200809.861000", "200809.863000", "200809.866000", "200809.869000", "200809.871000", "200809.874000", "200809.876000", "200809.879000", "200809.882000", "200809.884000", "200809.887000", "200809.890000", "200809.892000", "200809.895000", "200809.897000", "200809.900000", "200809.903000", "200849.852000", "200849.855000", "200849.858000", "200849.861000", "200849.863000", "200849.866000", "200849.869000", "200849.871000", "200849.874000", "200849.877000", "200849.879000", "200849.882000", "200849.884000", "200849.887000", "200849.890000", "200849.892000", "200849.895000", "200849.897000", "200849.900000", "200849.903000", "200929.852000", "200929.855000", "200929.858000", "200929.861000", "200929.864000", "200929.866000", "200929.869000", "200929.872000", "200929.875000", "200929.878000", "200929.881000", "200929.884000", "200929.886000", "200929.889000", "200929.892000", "200929.895000", "200929.898000", "200929.901000", "200929.903000", "200929.906000", "201009.852000", "201009.855000", "201009.858000", "201009.861000", "201009.864000", "201009.867000", "201009.870000", "201009.872000", "201009.875000", "201009.878000", "201009.881000", "201009.884000", "201009.886000", "201009.889000", "201009.892000", "201009.895000", "201009.898000", "201009.901000", "201009.903000", "201009.906000", "201049.852000", "201049.856000", "201049.858000", "201049.861000", "201049.863000", "201049.866000", "201049.869000", "201049.871000", "201049.874000", "201049.876000", "201049.879000", "201049.882000", "201049.884000", "201049.887000", "201049.889000", "201049.892000", "201049.895000", "201049.897000", "201049.900000", "201049.903000", "201106.360000", "201106.363000", "201106.366000", "201106.369000", "201106.372000", "201106.374000", "201106.377000", "201106.380000", "201106.383000"],
      "InstanceCreationTime": ["200329.858000", "200329.862000", "200329.864000", "200329.867000", "200329.869000", "200329.872000", "200329.875000", "200329.877000", "200329.880000", "200329.883000", "200329.885000", "200329.888000", "200329.890000", "200329.893000", "200329.895000", "200329.898000", "200329.901000", "200329.903000", "200329.906000", "200329.908000", "200329.911000", "200329.914000", "200329.916000", "200329.919000", "200329.922000", "200329.924000", "200329.927000", "200409.852000", "200409.855000", "200409.858000", "200409.861000", "200409.864000", "200409.867000", "200409.870000", "200409.872000", "200409.875000", "200409.877000", "200409.880000", "200409.883000", "200409.885000", "200409.888000", "200409.890000", "200409.893000", "200409.896000", "200409.898000", "200409.901000", "200409.903000", "200449.851000", "200449.855000", "200449.858000", "200449.860000", "200449.863000", "200449.866000", "200449.869000", "200449.872000", "200449.875000", "200449.877000", "200449.880000", "200449.883000", "200449.886000", "200449.889000", "200449.891000", "200449.894000", "200449.897000", "200449.900000", "200449.903000", "200449.905000", "200529.852000", "200529.856000", "200529.859000", "200529.861000", "200529.864000", "200529.867000", "200529.869000", "200529.872000", "200529.875000", "200529.877000", "200529.880000", "200529.883000", "200529.886000", "200529.888000", "200529.891000", "200529.894000", "200529.896000", "200529.899000", "200529.902000", "200529.904000", "200609.852000", "200609.856000", "200609.858000", "200609.861000", "200609.864000", "200609.867000", "200609.870000", "200609.873000", "200609.876000", "200609.878000", "200609.881000", "200609.884000", "200609.887000", "200609.890000", "200609.892000", "200609.895000", "200609.898000", "200609.901000", "200609.904000", "200609.907000", "200649.851000", "200649.854000", "200649.857000", "200649.860000", "200649.862000", "200649.865000", "200649.868000", "200649.871000", "200649.874000", "200649.877000", "200649.879000", "200649.882000", "200649.885000", "200649.888000", "200649.890000", "200649.893000", "200649.896000", "200649.898000", "200649.901000", "200649.904000", "200729.851000", "200729.854000", "200729.857000", "200729.859000", "200729.862000", "200729.865000", "200729.867000", "200729.870000", "200729.873000", "200729.875000", "200729.878000", "200729.880000", "200729.883000", "200729.886000", "200729.888000", "200729.891000", "200729.894000", "200729.896000", "200729.899000", "200729.901000", "200809.852000", "200809.855000", "200809.858000", "200809.861000", "200809.863000", "200809.866000", "200809.869000", "200809.871000", "200809.874000", "200809.876000", "200809.879000", "200809.882000", "200809.884000", "200809.887000", "200809.890000", "200809.892000", "200809.895000", "200809.897000", "200809.900000", "200809.903000", "200849.852000", "200849.855000", "200849.858000", "200849.861000", "200849.863000", "200849.866000", "200849.869000", "200849.871000", "200849.874000", "200849.877000", "200849.879000", "200849.882000", "200849.884000", "200849.887000", "200849.890000", "200849.892000", "200849.895000", "200849.897000", "200849.900000", "200849.903000", "200929.852000", "200929.855000", "200929.858000", "200929.861000", "200929.864000", "200929.866000", "200929.869000", "200929.872000", "200929.875000", "200929.878000", "200929.881000", "200929.884000", "200929.886000", "200929.889000", "200929.892000", "200929.895000", "200929.898000", "200929.901000", "200929.903000", "200929.906000", "201009.852000", "201009.855000", "201009.858000", "201009.861000", "201009.864000", "201009.867000", "201009.870000", "201009.872000", "201009.875000", "201009.878000", "201009.881000", "201009.884000", "201009.886000", "201009.889000", "201009.892000", "201009.895000", "201009.898000", "201009.901000", "201009.903000", "201009.906000", "201049.852000", "201049.856000", "201049.858000", "201049.861000", "201049.863000", "201049.866000", "201049.869000", "201049.871000", "201049.874000", "201049.876000", "201049.879000", "201049.882000", "201049.884000", "201049.887000", "201049.889000", "201049.892000", "201049.895000", "201049.897000", "201049.900000", "201049.903000", "201106.360000", "201106.363000", "201106.366000", "201106.369000", "201106.372000", "201106.374000", "201106.377000", "201106.380000", "201106.383000"],
      "InstanceNumber": [1, 2, 3, 4, 5, 6, 7, 8, 9, 10, 11, 12, 13, 14, 15, 16, 17, 18, 19, 20, 21, 22, 23, 24, 25, 26, 27, 28, 29, 30, 31, 32, 33, 34, 35, 36, 37, 38, 39, 40, 41, 42, 43, 44, 45, 46, 47, 48, 49, 50, 51, 52, 53, 54, 55, 56, 57, 58, 59, 60, 61, 62, 63, 64, 65, 66, 67, 68, 69, 70, 71, 72, 73, 74, 75, 76, 77, 78, 79, 80, 81, 82, 83, 84, 85, 86, 87, 88, 89, 90, 91, 92, 93, 94, 95, 96, 97, 98, 99, 100, 101, 102, 103, 104, 105, 106, 107, 108, 109, 110, 111, 112, 113, 114, 115, 116, 117, 118, 119, 120, 121, 122, 123, 124, 125, 126, 127, 128, 129, 130, 131, 132, 133, 134, 135, 136, 137, 138, 139, 140, 141, 142, 143, 144, 145, 146, 147, 148, 149, 150, 151, 152, 153, 154, 155, 156, 157, 158, 159, 160, 161, 162, 163, 164, 165, 166, 167, 168, 169, 170, 171, 172, 173, 174, 175, 176, 177, 178, 179, 180, 181, 182, 183, 184, 185, 186, 187, 188, 189, 190, 191, 192, 193, 194, 195, 196, 197, 198, 199, 200, 201, 202, 203, 204, 205, 206, 207, 208, 209, 210, 211, 212, 213, 214, 215, 216, 217, 218, 219, 220, 221, 222, 223, 224, 225, 226, 227, 228, 229, 230, 231, 232, 233, 234, 235, 236, 237, 238, 239, 240, 241, 242, 243, 244, 245, 246, 247, 248, 249, 250, 251, 252, 253, 254, 255, 256],
      "LargestImagePixelValue": [757, 758, 763, 742, 841, 757, 841, 746, 751, 780, 763, 783, 817, 761, 787, 752, 786, 777, 792, 776, 824, 798, 779, 771, 725, 753, 813, 771, 806, 784, 762, 758, 773, 776, 760, 754, 843, 778, 741, 785, 729, 786, 766, 826, 771, 826, 764, 754, 772, 769, 795, 723, 765, 745, 749, 752, 774, 837, 775, 741, 761, 765, 830, 807, 773, 756, 766, 755, 812, 753, 841, 764, 735, 744, 815, 801, 779, 775, 770, 775, 746, 813, 791, 746, 789, 793, 844, 772, 786, 755, 755, 838, 782, 774, 794, 756, 769, 765, 772, 865, 749, 742, 774, 786, 749, 753, 781, 769, 747, 783, 787, 792, 761, 809, 776, 858, 769, 791, 770, 826, 791, 748, 767, 746, 767, 777, 807, 781, 833, 815, 761, 876, 751, 745, 771, 737, 763, 839, 799, 841, 802, 771, 783, 776, 741, 763, 804, 803, 760, 754, 758, 869, 767, 770, 813, 818, 770, 800, 828, 806, 800, 820, 842, 750, 767, 795, 748, 753, 758, 754, 736, 747, 790, 780, 787, 777, 768, 715, 855, 775, 782, 757, 753, 780, 825, 769, 879, 743, 760, 753, 784, 778, 759, 834, 775, 758, 738, 756, 782, 778, 774, 718, 758, 760, 747, 806, 748, 747, 762, 760, 763, 759, 755, 790, 778, 767, 792, 759, 798, 781, 787, 785, 860, 863, 869, 860, 766, 816, 863, 898, 813, 909, 771, 918, 787, 867, 760, 880, 795, 825, 750, 774, 918, 927, 858, 784, 745, 755, 764, 771, 816, 928, 885, 763, 772, 764],
      "WindowCenter": [430.0, 429.0, 429.0, 428.0, 429.0, 428.0, 428.0, 427.0, 427.0, 428.0, 428.0, 428.0, 429.0, 428.0, 428.0, 428.0, 429.0, 429.0, 429.0, 430.0, 430.0, 430.0, 430.0, 429.0, 428.0, 429.0, 429.0, 430.0, 429.0, 428.0, 428.0, 428.0, 428.0, 429.0, 429.0, 429.0, 429.0, 428.0, 428.0, 428.0, 428.0, 429.0, 428.0, 429.0, 429.0, 430.0, 428.0, 428.0, 429.0, 429.0, 429.0, 428.0, 429.0, 430.0, 430.0, 430.0, 430.0, 430.0, 429.0, 430.0, 430.0, 430.0, 430.0, 431.0, 430.0, 430.0, 431.0, 430.0, 431.0, 430.0, 430.0, 430.0, 430.0, 429.0, 429.0, 429.0, 429.0, 430.0, 430.0, 430.0, 429.0, 430.0, 430.0, 430.0, 431.0, 431.0, 432.0, 430.0, 432.0, 431.0, 431.0, 433.0, 430.0, 429.0, 429.0, 428.0, 428.0, 428.0, 428.0, 429.0, 427.0, 427.0, 428.0, 428.0, 427.0, 427.0, 429.0, 429.0, 429.0, 429.0, 430.0, 430.0, 431.0, 431.0, 430.0, 430.0, 428.0, 430.0, 430.0, 430.0, 429.0, 427.0, 428.0, 428.0, 428.0, 430.0, 431.0, 432.0, 431.0, 430.0, 428.0, 429.0, 428.0, 428.0, 429.0, 428.0, 428.0, 429.0, 429.0, 429.0, 429.0, 430.0, 430.0, 430.0, 429.0, 429.0, 429.0, 429.0, 429.0, 429.0, 429.0, 430.0, 429.0, 430.0, 430.0, 430.0, 430.0, 430.0, 431.0, 430.0, 432.0, 432.0, 433.0, 431.0, 430.0, 430.0, 429.0, 428.0, 428.0, 428.0, 428.0, 428.0, 429.0, 429.0, 430.0, 431.0, 429.0, 428.0, 429.0, 428.0, 430.0, 429.0, 430.0, 430.0, 430.0, 430.0, 431.0, 429.0, 431.0, 431.0, 430.0, 428.0, 428.0, 429.0, 428.0, 428.0, 428.0, 428.0, 428.0, 428.0, 428.0, 427.0, 428.0, 428.0, 428.0, 429.0, 428.0, 427.0, 428.0, 429.0, 429.0, 429.0, 428.0, 429.0, 429.0, 429.0, 430.0, 430.0, 431.0, 430.0, 431.0, 432.0, 433.0, 433.0, 432.0, 432.0, 431.0, 432.0, 433.0, 433.0, 431.0, 432.0, 431.0, 433.0, 431.0, 432.0, 431.0, 432.0, 430.0, 430.0, 431.0, 431.0, 432.0, 432.0, 430.0, 428.0, 428.0, 428.0, 430.0, 430.0, 430.0, 431.0, 430.0, 428.0, 429.0, 429.0],
      "WindowWidth": [901.0, 900.0, 899.0, 898.0, 900.0, 897.0, 898.0, 896.0, 896.0, 897.0, 897.0, 897.0, 899.0, 897.0, 897.0, 897.0, 898.0, 899.0, 899.0, 900.0, 900.0, 900.0, 900.0, 900.0, 898.0, 899.0, 899.0, 900.0, 899.0, 898.0, 897.0, 897.0, 897.0, 898.0, 898.0, 898.0, 899.0, 897.0, 897.0, 897.0, 897.0, 898.0, 898.0, 899.0, 899.0, 900.0, 898.0, 898.0, 899.0, 898.0, 899.0, 898.0, 900.0, 900.0, 900.0, 901.0, 902.0, 902.0, 900.0, 900.0, 900.0, 901.0, 901.0, 902.0, 902.0, 902.0, 903.0, 902.0, 903.0, 900.0, 901.0, 900.0, 901.0, 899.0, 900.0, 898.0, 898.0, 900.0, 900.0, 901.0, 899.0, 901.0, 900.0, 901.0, 904.0, 903.0, 904.0, 901.0, 904.0, 903.0, 903.0, 906.0, 901.0, 899.0, 899.0, 897.0, 897.0, 897.0, 897.0, 898.0, 896.0, 896.0, 897.0, 897.0, 895.0, 896.0, 898.0, 899.0, 899.0, 900.0, 900.0, 901.0, 902.0, 902.0, 900.0, 900.0, 898.0, 901.0, 902.0, 901.0, 899.0, 896.0, 897.0, 897.0, 898.0, 900.0, 903.0, 904.0, 903.0, 900.0, 897.0, 899.0, 897.0, 898.0, 899.0, 898.0, 898.0, 899.0, 898.0, 899.0, 899.0, 900.0, 900.0, 900.0, 900.0, 899.0, 900.0, 899.0, 899.0, 900.0, 899.0, 901.0, 899.0, 900.0, 901.0, 901.0, 901.0, 902.0, 902.0, 901.0, 904.0, 905.0, 906.0, 902.0, 901.0, 900.0, 899.0, 898.0, 898.0, 898.0, 898.0, 898.0, 898.0, 899.0, 900.0, 902.0, 900.0, 898.0, 900.0, 898.0, 900.0, 899.0, 900.0, 900.0, 902.0, 900.0, 902.0, 899.0, 902.0, 904.0, 900.0, 898.0, 897.0, 898.0, 897.0, 897.0, 897.0, 898.0, 897.0, 897.0, 897.0, 896.0, 898.0, 897.0, 898.0, 898.0, 898.0, 896.0, 897.0, 899.0, 899.0, 899.0, 898.0, 898.0, 899.0, 899.0, 902.0, 900.0, 902.0, 902.0, 903.0, 904.0, 906.0, 905.0, 904.0, 905.0, 903.0, 905.0, 905.0, 906.0, 903.0, 905.0, 903.0, 905.0, 903.0, 904.0, 903.0, 904.0, 902.0, 901.0, 902.0, 903.0, 905.0, 903.0, 900.0, 897.0, 898.0, 898.0, 900.0, 901.0, 902.0, 902.0, 901.0, 898.0, 899.0, 900.0]
    },
    "slices": {}
  }
}