{
  "AcquisitionMatrixPE": 64,
  "AcquisitionNumber": 1,
  "AcquisitionTime": "16:24:14.442500",
  "BandwidthPerPixelPhaseEncode": 40.064,
  "BaseResolution": 64,
  "BodyPartExamined": "BRAIN",
  "ConsistencyInfo": "N4_VD13D_LATEST_20130810",
  "ConversionSoftware": "dcm2niix",
  "ConversionSoftwareVersion": "v1.0.20191031",
  "DerivedVendorReportedEchoSpacing": 0.000780002,
  "DeviceSerialNumber": "67007",
  "DwellTime": 5.3e-06,
  "EchoTime": 0.03,
  "EchoTrainLength": 31,
  "EffectiveEchoSpacing": 0.000390001,
  "FlipAngle": 75,
  "ImageOrientationPatientDICOM": [0.99993, 0.00369369, -0.0112199, -0.00349043, 0.99983, 0.0180818],
  "ImageType": [
    "ORIGINAL",
    "PRIMARY",
    "M",
    "ND",
    "NORM",
    "MOSAIC"
],
  "ImagingFrequency": 123.211,
  "InPlanePhaseEncodingDirectionDICOM": "ROW",
  "InstitutionAddress": "Perth_Drive_100_London_Ontario_CA_N6A_5K8",
  "InstitutionName": "Robarts_Research_Institute",
  "InstitutionalDepartmentName": "CFMM",
  "MRAcquisitionType": "2D",
  "MagneticFieldStrength": 3,
  "Manufacturer": "Siemens",
  "ManufacturersModelName": "Prisma_fit",
  "Modality": "MR",
  "ParallelReductionFactorInPlane": 2,
  "PartialFourier": 1,
  "PatientPosition": "HFS",
  "PercentPhaseFOV": 100,
  "PhaseEncodingDirection": "i",
  "PhaseEncodingSteps": 63,
  "PhaseResolution": 1,
  "PixelBandwidth": 1475,
  "ProcedureStepDescription": "Owen_Naci",
  "ProtocolName": "Resting_State",
  "PulseSequenceDetails": "%SiemensSeq%_ep2d_bold",
  "ReceiveCoilActiveElements": "HEA;HEP",
  "ReceiveCoilName": "Head_32",
  "ReconMatrixPE": 64,
  "RefLinesPE": 24,
  "RepetitionTime": 2,
  "SAR": 0.0928203,
  "ScanOptions": "FS",
  "ScanningSequence": "EP",
  "SequenceName": "_epfid2d1_64",
  "SequenceVariant": "SK",
  "SeriesDescription": "Resting_State",
  "SeriesNumber": 9,
  "ShimSetting": [5238, -6182, -3817, 454, 34, -33, -19, 3],
  "SliceThickness": 3,
  "SliceTiming": [1.92, 1.86, 1.8, 1.74, 1.68, 1.62, 1.56, 1.5, 1.44, 1.38, 1.32, 1.26, 1.2, 1.14, 1.08, 1.02, 0.96, 0.9, 0.84, 0.78, 0.72, 0.66, 0.6, 0.54, 0.48, 0.42, 0.36, 0.3, 0.24, 0.18, 0.12, 0.06, 0],
  "SoftwareVersions": "syngo_MR_D13D",
  "SpacingBetweenSlices": 3.75,
  "StationName": "AWP67007",
  "TaskName": "rest",
  "TotalReadoutTime": 0.0245701,
  "TxRefAmp": 271.463,
  "dcmmeta_affine": [
    [-2.999790668487549, -0.010471288114786148, -0.042318008840084076, 95.87667846679688],
    [-0.01108106505125761, 2.9994912147521973, 0.06765512377023697, -71.85334777832031],
    [-0.03365974873304367, -0.054245367646217346, 3.7491509914398193, -42.570335388183594],
    [0.0, 0.0, 0.0, 1.0]
],
  "dcmmeta_reorient_transform": [
    [0.0, -1.0, 0.0, 63.0],
    [1.0, 0.0, 0.0, 0.0],
    [0.0, 0.0, 1.0, 0.0],
    [0.0, 0.0, 0.0, 1.0]
],
  "dcmmeta_shape": [64, 64, 33, 256],
  "dcmmeta_slice_dim": 2,
  "dcmmeta_version": 0.6,
  "global": {
    "const": {
      "AcquisitionMatrix": [0, 64, 64, 0],
      "AngioFlag": "N",
      "BitsAllocated": 16,
      "BitsStored": 12,
      "BodyPartExamined": "BRAIN",
      "Columns": 384,
      "EchoNumbers": 1,
      "EchoTime": 30.0,
      "EchoTrainLength": 31,
      "FlipAngle": 75.0,
      "HighBit": 11,
      "ImageOrientationPatient": [0.99993023263949, 0.00369368847446, -0.0112199161761, -0.0034904294527, 0.9998304185226, 0.01808178915828],
      "ImagePositionPatient": [-573.50809484839, -598.80617080182, -49.281490809184],
      "ImageType": [
        "ORIGINAL",
        "PRIMARY",
        "M",
        "ND",
        "NORM",
        "MOSAIC"
],
      "ImagedNucleus": "1H",
      "ImagingFrequency": 123.21102,
      "InPlanePhaseEncodingDirection": "ROW",
      "MRAcquisitionType": "2D",
      "MagneticFieldStrength": 3.0,
      "Manufacturer": "SIEMENS",
      "ManufacturerModelName": "Prisma_fit",
      "Modality": "MR",
      "NumberOfAverages": 1.0,
      "NumberOfPhaseEncodingSteps": 63,
      "PercentPhaseFieldOfView": 100.0,
      "PercentSampling": 100.0,
      "PerformedProcedureStepStartTime": "153227.866000",
      "PhotometricInterpretation": "MONOCHROME2",
      "PixelBandwidth": 1475.0,
      "PixelRepresentation": 0,
      "PixelSpacing": [3.0, 3.0],
      "ProtocolName": "Resting State",
      "RepetitionTime": 2000.0,
      "Rows": 384,
      "SAR": 0.09282028701105,
      "SamplesPerPixel": 1,
      "ScanOptions": "FS",
      "ScanningSequence": "EP",
      "SequenceName": "*epfid2d1_64",
      "SequenceVariant": "SK",
      "SeriesDescription": "Resting State",
      "SeriesNumber": 9,
      "SeriesTime": "162453.746000",
      "SliceLocation": -44.938975695313,
      "SliceThickness": 3.0,
      "SmallestImagePixelValue": 0,
      "SoftwareVersions": "syngo MR D13D",
      "SpacingBetweenSlices": 3.7500000394098,
      "SpecificCharacterSet": "ISO_IR 100",
      "StudyID": "1",
      "StudyTime": "153227.809000",
      "TimeOfLastCalibration": ["123723.000000", "123723.000000"],
      "TransmitCoilName": "Body",
      "VariableFlipAngleFlag": "N",
      "WindowCenterWidthExplanation": "Algo1",
      "dBdt": 0.0},
    "slices": {}
  },
  "time": {
    "samples": {
      "AcquisitionNumber": [1, 2, 3, 4, 5, 6, 7, 8, 9, 10, 11, 12, 13, 14, 15, 16, 17, 18, 19, 20, 21, 22, 23, 24, 25, 26, 27, 28, 29, 30, 31, 32, 33, 34, 35, 36, 37, 38, 39, 40, 41, 42, 43, 44, 45, 46, 47, 48, 49, 50, 51, 52, 53, 54, 55, 56, 57, 58, 59, 60, 61, 62, 63, 64, 65, 66, 67, 68, 69, 70, 71, 72, 73, 74, 75, 76, 77, 78, 79, 80, 81, 82, 83, 84, 85, 86, 87, 88, 89, 90, 91, 92, 93, 94, 95, 96, 97, 98, 99, 100, 101, 102, 103, 104, 105, 106, 107, 108, 109, 110, 111, 112, 113, 114, 115, 116, 117, 118, 119, 120, 121, 122, 123, 124, 125, 126, 127, 128, 129, 130, 131, 132, 133, 134, 135, 136, 137, 138, 139, 140, 141, 142, 143, 144, 145, 146, 147, 148, 149, 150, 151, 152, 153, 154, 155, 156, 157, 158, 159, 160, 161, 162, 163, 164, 165, 166, 167, 168, 169, 170, 171, 172, 173, 174, 175, 176, 177, 178, 179, 180, 181, 182, 183, 184, 185, 186, 187, 188, 189, 190, 191, 192, 193, 194, 195, 196, 197, 198, 199, 200, 201, 202, 203, 204, 205, 206, 207, 208, 209, 210, 211, 212, 213, 214, 215, 216, 217, 218, 219, 220, 221, 222, 223, 224, 225, 226, 227, 228, 229, 230, 231, 232, 233, 234, 235, 236, 237, 238, 239, 240, 241, 242, 243, 244, 245, 246, 247, 248, 249, 250, 251, 252, 253, 254, 255, 256],
      "AcquisitionTime": ["162414.442500", "162416.442500", "162418.442500", "162420.442500", "162422.442500", "162424.442500", "162426.442500", "162428.442500", "162430.442500", "162432.442500", "162434.442500", "162436.442500", "162438.442500", "162440.442500", "162442.442500", "162444.442500", "162446.442500", "162448.442500", "162450.442500", "162452.442500", "162454.442500", "162456.442500", "162458.442500", "162500.442500", "162502.442500", "162504.442500", "162506.442500", "162508.442500", "162510.442500", "162512.442500", "162514.442500", "162516.442500", "162518.442500", "162520.442500", "162522.442500", "162524.442500", "162526.442500", "162528.442500", "162530.442500", "162532.442500", "162534.442500", "162536.442500", "162538.442500", "162540.442500", "162542.442500", "162544.442500", "162546.442500", "162548.442500", "162550.442500", "162552.442500", "162554.442500", "162556.442500", "162558.442500", "162600.442500", "162602.442500", "162604.442500", "162606.442500", "162608.442500", "162610.442500", "162612.442500", "162614.442500", "162616.442500", "162618.442500", "162620.442500", "162622.442500", "162624.442500", "162626.442500", "162628.442500", "162630.442500", "162632.442500", "162634.442500", "162636.442500", "162638.442500", "162640.442500", "162642.442500", "162644.442500", "162646.442500", "162648.442500", "162650.442500", "162652.442500", "162654.442500", "162656.442500", "162658.442500", "162700.442500", "162702.442500", "162704.442500", "162706.442500", "162708.442500", "162710.442500", "162712.442500", "162714.442500", "162716.442500", "162718.442500", "162720.442500", "162722.442500", "162724.442500", "162726.442500", "162728.442500", "162730.442500", "162732.442500", "162734.442500", "162736.442500", "162738.442500", "162740.442500", "162742.442500", "162744.442500", "162746.442500", "162748.442500", "162750.442500", "162752.442500", "162754.442500", "162756.442500", "162758.442500", "162800.442500", "162802.442500", "162804.442500", "162806.442500", "162808.442500", "162810.442500", "162812.442500", "162814.442500", "162816.442500", "162818.442500", "162820.442500", "162822.445000", "162824.445000", "162826.445000", "162828.445000", "162830.445000", "162832.445000", "162834.445000", "162836.445000", "162838.445000", "162840.445000", "162842.445000", "162844.445000", "162846.445000", "162848.445000", "162850.445000", "162852.445000", "162854.445000", "162856.445000", "162858.445000", "162900.445000", "162902.445000", "162904.445000", "162906.445000", "162908.445000", "162910.445000", "162912.445000", "162914.445000", "162916.445000", "162918.445000", "162920.445000", "162922.445000", "162924.445000", "162926.445000", "162928.445000", "162930.445000", "162932.445000", "162934.445000", "162936.445000", "162938.445000", "162940.445000", "162942.445000", "162944.445000", "162946.445000", "162948.445000", "162950.445000", "162952.445000", "162954.445000", "162956.445000", "162958.445000", "163000.445000", "163002.445000", "163004.445000", "163006.445000", "163008.445000", "163010.445000", "163012.445000", "163014.445000", "163016.445000", "163018.445000", "163020.445000", "163022.445000", "163024.445000", "163026.445000", "163028.445000", "163030.445000", "163032.445000", "163034.445000", "163036.445000", "163038.445000", "163040.445000", "163042.445000", "163044.445000", "163046.445000", "163048.445000", "163050.445000", "163052.445000", "163054.445000", "163056.445000", "163058.445000", "163100.445000", "163102.445000", "163104.445000", "163106.445000", "163108.445000", "163110.445000", "163112.445000", "163114.445000", "163116.445000", "163118.445000", "163120.445000", "163122.445000", "163124.445000", "163126.445000", "163128.445000", "163130.445000", "163132.445000", "163134.445000", "163136.445000", "163138.445000", "163140.445000", "163142.445000", "163144.445000", "163146.445000", "163148.445000", "163150.445000", "163152.445000", "163154.445000", "163156.445000", "163158.445000", "163200.445000", "163202.445000", "163204.445000", "163206.445000", "163208.445000", "163210.445000", "163212.445000", "163214.445000", "163216.445000", "163218.445000", "163220.445000", "163222.445000", "163224.445000", "163226.445000", "163228.445000", "163230.445000", "163232.445000", "163234.445000", "163236.445000", "163238.445000", "163240.445000", "163242.445000", "163244.445000"],
      "ContentTime": ["162453.750000", "162453.754000", "162453.757000", "162453.766000", "162453.769000", "162453.772000", "162453.774000", "162453.777000", "162453.780000", "162453.782000", "162453.785000", "162453.788000", "162453.791000", "162453.794000", "162453.796000", "162453.799000", "162453.802000", "162453.805000", "162453.808000", "162453.811000", "162533.746000", "162533.749000", "162533.752000", "162533.755000", "162533.758000", "162533.760000", "162533.763000", "162533.766000", "162533.769000", "162533.772000", "162533.774000", "162533.777000", "162533.780000", "162533.783000", "162533.786000", "162533.789000", "162533.791000", "162533.794000", "162533.797000", "162533.800000", "162613.745000", "162613.748000", "162613.751000", "162613.753000", "162613.756000", "162613.759000", "162613.762000", "162613.765000", "162613.768000", "162613.770000", "162613.773000", "162613.776000", "162613.779000", "162613.782000", "162613.785000", "162613.787000", "162613.790000", "162613.793000", "162613.803000", "162613.806000", "162653.744000", "162653.747000", "162653.750000", "162653.753000", "162653.756000", "162653.759000", "162653.762000", "162653.765000", "162653.767000", "162653.770000", "162653.773000", "162653.775000", "162653.778000", "162653.781000", "162653.784000", "162653.787000", "162653.790000", "162653.793000", "162653.795000", "162653.799000", "162733.745000", "162733.749000", "162733.752000", "162733.754000", "162733.757000", "162733.760000", "162733.763000", "162733.766000", "162733.774000", "162733.777000", "162733.779000", "162733.783000", "162733.785000", "162733.788000", "162733.791000", "162733.794000", "162733.797000", "162733.800000", "162733.802000", "162733.805000", "162813.745000", "162813.748000", "162813.751000", "162813.754000", "162813.756000", "162813.759000", "162813.762000", "162813.765000", "162813.768000", "162813.771000", "162813.774000", "162813.776000", "162813.779000", "162813.782000", "162813.785000", "162813.788000", "162813.790000", "162813.793000", "162813.796000", "162813.799000", "162853.745000", "162853.748000", "162853.751000", "162853.754000", "162853.757000", "162853.760000", "162853.763000", "162853.766000", "162853.769000", "162853.771000", "162853.774000", "162853.777000", "162853.780000", "162853.783000", "162853.786000", "162853.789000", "162853.792000", "162853.794000", "162853.797000", "162853.800000", "162913.744000", "162913.747000", "162913.750000", "162913.753000", "162913.756000", "162913.758000", "162913.761000", "162913.764000", "162913.767000", "162913.770000", "162953.745000", "162953.748000", "162953.751000", "162953.753000", "162953.757000", "162953.759000", "162953.762000", "162953.765000", "162953.768000", "162953.771000", "162953.773000", "162953.776000", "162953.779000", "162953.782000", "162953.785000", "162953.788000", "162953.791000", "162953.793000", "162953.796000", "162953.799000", "163033.745000", "163033.749000", "163033.752000", "163033.755000", "163033.757000", "163033.760000", "163033.763000", "163033.766000", "163033.769000", "163033.772000", "163033.775000", "163033.778000", "163033.781000", "163033.784000", "163033.787000", "163033.789000", "163033.792000", "163033.795000", "163033.798000", "163033.801000", "163113.745000", "163113.748000", "163113.751000", "163113.753000", "163113.756000", "163113.759000", "163113.762000", "163113.765000", "163113.768000", "163113.771000", "163113.774000", "163113.777000", "163113.779000", "163113.782000", "163113.785000", "163113.788000", "163113.791000", "163113.794000", "163113.797000", "163113.799000", "163153.744000", "163153.747000", "163153.750000", "163153.753000", "163153.756000", "163153.759000", "163153.761000", "163153.764000", "163153.767000", "163153.770000", "163153.773000", "163153.776000", "163153.778000", "163153.781000", "163153.784000", "163153.787000", "163153.789000", "163153.792000", "163153.795000", "163153.798000", "163233.745000", "163233.748000", "163233.751000", "163233.754000", "163233.757000", "163233.760000", "163233.763000", "163233.766000", "163233.769000", "163233.771000", "163233.774000", "163233.777000", "163233.780000", "163233.783000", "163233.786000", "163233.789000", "163233.792000", "163233.795000", "163233.798000", "163233.800000", "163244.627000", "163244.630000", "163244.634000", "163244.638000", "163244.640000", "163244.643000"],
      "InstanceCreationTime": ["162453.750000", "162453.754000", "162453.757000", "162453.766000", "162453.769000", "162453.772000", "162453.774000", "162453.777000", "162453.780000", "162453.782000", "162453.785000", "162453.788000", "162453.791000", "162453.794000", "162453.796000", "162453.799000", "162453.802000", "162453.805000", "162453.808000", "162453.811000", "162533.746000", "162533.749000", "162533.752000", "162533.755000", "162533.758000", "162533.760000", "162533.763000", "162533.766000", "162533.769000", "162533.772000", "162533.774000", "162533.777000", "162533.780000", "162533.783000", "162533.786000", "162533.789000", "162533.791000", "162533.794000", "162533.797000", "162533.800000", "162613.745000", "162613.748000", "162613.751000", "162613.753000", "162613.756000", "162613.759000", "162613.762000", "162613.765000", "162613.768000", "162613.770000", "162613.773000", "162613.776000", "162613.779000", "162613.782000", "162613.785000", "162613.787000", "162613.790000", "162613.793000", "162613.803000", "162613.806000", "162653.744000", "162653.747000", "162653.750000", "162653.753000", "162653.756000", "162653.759000", "162653.762000", "162653.765000", "162653.767000", "162653.770000", "162653.773000", "162653.775000", "162653.778000", "162653.781000", "162653.784000", "162653.787000", "162653.790000", "162653.793000", "162653.795000", "162653.799000", "162733.745000", "162733.749000", "162733.752000", "162733.754000", "162733.757000", "162733.760000", "162733.763000", "162733.766000", "162733.774000", "162733.777000", "162733.779000", "162733.783000", "162733.785000", "162733.788000", "162733.791000", "162733.794000", "162733.797000", "162733.800000", "162733.802000", "162733.805000", "162813.745000", "162813.748000", "162813.751000", "162813.754000", "162813.756000", "162813.759000", "162813.762000", "162813.765000", "162813.768000", "162813.771000", "162813.774000", "162813.776000", "162813.779000", "162813.782000", "162813.785000", "162813.788000", "162813.790000", "162813.793000", "162813.796000", "162813.799000", "162853.745000", "162853.748000", "162853.751000", "162853.754000", "162853.757000", "162853.760000", "162853.763000", "162853.766000", "162853.769000", "162853.771000", "162853.774000", "162853.777000", "162853.780000", "162853.783000", "162853.786000", "162853.789000", "162853.792000", "162853.794000", "162853.797000", "162853.800000", "162913.744000", "162913.747000", "162913.750000", "162913.753000", "162913.756000", "162913.758000", "162913.761000", "162913.764000", "162913.767000", "162913.770000", "162953.745000", "162953.748000", "162953.751000", "162953.753000", "162953.757000", "162953.759000", "162953.762000", "162953.765000", "162953.768000", "162953.771000", "162953.773000", "162953.776000", "162953.779000", "162953.782000", "162953.785000", "162953.788000", "162953.791000", "162953.793000", "162953.796000", "162953.799000", "163033.745000", "163033.749000", "163033.752000", "163033.755000", "163033.757000", "163033.760000", "163033.763000", "163033.766000", "163033.769000", "163033.772000", "163033.775000", "163033.778000", "163033.781000", "163033.784000", "163033.787000", "163033.789000", "163033.792000", "163033.795000", "163033.798000", "163033.801000", "163113.745000", "163113.748000", "163113.751000", "163113.753000", "163113.756000", "163113.759000", "163113.762000", "163113.765000", "163113.768000", "163113.771000", "163113.774000", "163113.777000", "163113.779000", "163113.782000", "163113.785000", "163113.788000", "163113.791000", "163113.794000", "163113.797000", "163113.799000", "163153.744000", "163153.747000", "163153.750000", "163153.753000", "163153.756000", "163153.759000", "163153.761000", "163153.764000", "163153.767000", "163153.770000", "163153.773000", "163153.776000", "163153.778000", "163153.781000", "163153.784000", "163153.787000", "163153.789000", "163153.792000", "163153.795000", "163153.798000", "163233.745000", "163233.748000", "163233.751000", "163233.754000", "163233.757000", "163233.760000", "163233.763000", "163233.766000", "163233.769000", "163233.771000", "163233.774000", "163233.777000", "163233.780000", "163233.783000", "163233.786000", "163233.789000", "163233.792000", "163233.795000", "163233.798000", "163233.800000", "163244.627000", "163244.630000", "163244.634000", "163244.638000", "163244.640000", "163244.643000"],
      "InstanceNumber": [1, 2, 3, 4, 5, 6, 7, 8, 9, 10, 11, 12, 13, 14, 15, 16, 17, 18, 19, 20, 21, 22, 23, 24, 25, 26, 27, 28, 29, 30, 31, 32, 33, 34, 35, 36, 37, 38, 39, 40, 41, 42, 43, 44, 45, 46, 47, 48, 49, 50, 51, 52, 53, 54, 55, 56, 57, 58, 59, 60, 61, 62, 63, 64, 65, 66, 67, 68, 69, 70, 71, 72, 73, 74, 75, 76, 77, 78, 79, 80, 81, 82, 83, 84, 85, 86, 87, 88, 89, 90, 91, 92, 93, 94, 95, 96, 97, 98, 99, 100, 101, 102, 103, 104, 105, 106, 107, 108, 109, 110, 111, 112, 113, 114, 115, 116, 117, 118, 119, 120, 121, 122, 123, 124, 125, 126, 127, 128, 129, 130, 131, 132, 133, 134, 135, 136, 137, 138, 139, 140, 141, 142, 143, 144, 145, 146, 147, 148, 149, 150, 151, 152, 153, 154, 155, 156, 157, 158, 159, 160, 161, 162, 163, 164, 165, 166, 167, 168, 169, 170, 171, 172, 173, 174, 175, 176, 177, 178, 179, 180, 181, 182, 183, 184, 185, 186, 187, 188, 189, 190, 191, 192, 193, 194, 195, 196, 197, 198, 199, 200, 201, 202, 203, 204, 205, 206, 207, 208, 209, 210, 211, 212, 213, 214, 215, 216, 217, 218, 219, 220, 221, 222, 223, 224, 225, 226, 227, 228, 229, 230, 231, 232, 233, 234, 235, 236, 237, 238, 239, 240, 241, 242, 243, 244, 245, 246, 247, 248, 249, 250, 251, 252, 253, 254, 255, 256],
      "LargestImagePixelValue": [1160, 1308, 1300, 1297, 1366, 1415, 1051, 1107, 1120, 1366, 1277, 1014, 1096, 970, 1185, 1382, 1155, 1306, 1170, 1208, 1207, 1317, 1177, 1219, 1361, 1301, 1338, 1372, 1251, 1357, 1268, 973, 948, 1397, 1410, 1009, 1311, 1122, 1021, 1020, 1186, 1161, 1358, 1281, 1305, 1366, 1397, 1098, 1226, 1434, 1017, 960, 1360, 1047, 1025, 1419, 1307, 1112, 1420, 1118, 898, 1181, 1336, 1425, 998, 955, 1389, 1109, 1047, 1213, 1364, 1155, 1010, 1213, 1346, 1312, 1283, 1144, 910, 961, 1084, 1069, 1368, 1338, 1221, 1348, 1314, 1319, 1444, 1048, 1135, 1449, 1011, 1370, 1182, 1215, 1305, 1226, 1076, 1117, 1217, 1307, 1272, 1161, 1273, 1003, 1160, 1186, 1137, 1436, 1204, 1072, 1222, 1404, 1278, 1245, 1135, 1396, 1058, 1267, 1166, 1338, 1409, 952, 1149, 1301, 911, 1217, 1301, 1312, 1415, 1101, 1402, 1236, 1253, 873, 1171, 1319, 1001, 1397, 1303, 1278, 1218, 1246, 1018, 974, 1054, 1364, 1386, 1229, 1252, 1181, 1367, 1175, 1387, 975, 921, 1357, 1162, 1408, 1246, 1030, 1380, 1323, 1045, 1386, 1354, 913, 1096, 1149, 924, 1114, 1371, 1100, 1339, 1374, 1116, 1019, 1215, 1224, 1362, 1223, 1122, 965, 1201, 959, 1061, 1376, 1279, 1279, 1308, 1239, 1053, 1325, 1376, 1108, 1244, 1307, 931, 1089, 1253, 1338, 1228, 1074, 1355, 1261, 1001, 918, 1358, 1289, 1392, 1091, 1229, 1378, 1075, 1358, 1369, 1100, 1392, 1198, 955, 1258, 1150, 1115, 1402, 1016, 907, 1304, 1249, 1364, 1024, 1127, 1253, 1424, 1299, 1181, 1381, 1156, 1233, 1061, 1266, 1340, 1186, 1032, 1222, 1295, 1366, 1258, 1433, 1072, 906, 1365, 1353, 1349, 1066, 1368],
      "WindowCenter": [485.0, 485.0, 485.0, 485.0, 485.0, 485.0, 483.0, 483.0, 483.0, 485.0, 485.0, 482.0, 484.0, 483.0, 485.0, 488.0, 485.0, 485.0, 484.0, 484.0, 485.0, 486.0, 484.0, 484.0, 485.0, 485.0, 485.0, 485.0, 484.0, 483.0, 483.0, 481.0, 481.0, 485.0, 485.0, 484.0, 485.0, 483.0, 483.0, 483.0, 484.0, 484.0, 486.0, 486.0, 485.0, 486.0, 485.0, 483.0, 484.0, 485.0, 482.0, 482.0, 485.0, 483.0, 483.0, 487.0, 485.0, 483.0, 484.0, 482.0, 481.0, 484.0, 485.0, 485.0, 481.0, 481.0, 484.0, 482.0, 482.0, 485.0, 485.0, 483.0, 483.0, 484.0, 486.0, 486.0, 484.0, 483.0, 481.0, 482.0, 484.0, 484.0, 486.0, 486.0, 484.0, 485.0, 485.0, 484.0, 484.0, 482.0, 482.0, 484.0, 482.0, 486.0, 484.0, 484.0, 484.0, 484.0, 483.0, 483.0, 484.0, 485.0, 485.0, 485.0, 485.0, 483.0, 485.0, 486.0, 485.0, 486.0, 484.0, 483.0, 483.0, 486.0, 486.0, 484.0, 484.0, 486.0, 482.0, 485.0, 484.0, 485.0, 485.0, 481.0, 482.0, 490.0, 489.0, 485.0, 486.0, 485.0, 485.0, 483.0, 484.0, 483.0, 482.0, 480.0, 483.0, 485.0, 483.0, 485.0, 485.0, 484.0, 486.0, 486.0, 484.0, 484.0, 485.0, 486.0, 486.0, 483.0, 484.0, 484.0, 484.0, 484.0, 485.0, 481.0, 481.0, 485.0, 483.0, 484.0, 483.0, 481.0, 483.0, 484.0, 482.0, 484.0, 483.0, 480.0, 481.0, 482.0, 480.0, 482.0, 485.0, 483.0, 484.0, 484.0, 482.0, 481.0, 484.0, 484.0, 484.0, 483.0, 482.0, 481.0, 483.0, 483.0, 483.0, 486.0, 485.0, 485.0, 485.0, 484.0, 484.0, 486.0, 486.0, 484.0, 484.0, 484.0, 482.0, 484.0, 486.0, 486.0, 485.0, 484.0, 486.0, 485.0, 484.0, 485.0, 488.0, 487.0, 486.0, 483.0, 484.0, 485.0, 483.0, 484.0, 484.0, 482.0, 484.0, 482.0, 481.0, 483.0, 483.0, 483.0, 484.0, 482.0, 481.0, 484.0, 484.0, 491.0, 485.0, 485.0, 487.0, 487.0, 486.0, 484.0, 485.0, 484.0, 484.0, 483.0, 485.0, 485.0, 483.0, 482.0, 485.0, 486.0, 486.0, 486.0, 486.0, 483.0, 482.0, 486.0, 486.0, 484.0, 482.0, 485.0],
      "WindowWidth": [1008.0, 1008.0, 1009.0, 1008.0, 1007.0, 1008.0, 1005.0, 1004.0, 1005.0, 1008.0, 1007.0, 1004.0, 1006.0, 1005.0, 1008.0, 1013.0, 1008.0, 1008.0, 1007.0, 1006.0, 1008.0, 1009.0, 1006.0, 1007.0, 1009.0, 1007.0, 1008.0, 1007.0, 1006.0, 1005.0, 1004.0, 1002.0, 1002.0, 1008.0, 1008.0, 1007.0, 1007.0, 1005.0, 1005.0, 1005.0, 1006.0, 1007.0, 1010.0, 1009.0, 1009.0, 1009.0, 1008.0, 1004.0, 1006.0, 1008.0, 1003.0, 1003.0, 1008.0, 1006.0, 1006.0, 1011.0, 1007.0, 1005.0, 1007.0, 1004.0, 1002.0, 1007.0, 1008.0, 1009.0, 1002.0, 1002.0, 1007.0, 1004.0, 1004.0, 1008.0, 1008.0, 1005.0, 1005.0, 1007.0, 1009.0, 1010.0, 1007.0, 1005.0, 1002.0, 1004.0, 1007.0, 1007.0, 1010.0, 1009.0, 1006.0, 1009.0, 1007.0, 1006.0, 1007.0, 1003.0, 1003.0, 1007.0, 1003.0, 1009.0, 1006.0, 1005.0, 1007.0, 1006.0, 1004.0, 1005.0, 1007.0, 1009.0, 1008.0, 1007.0, 1008.0, 1005.0, 1008.0, 1010.0, 1009.0, 1010.0, 1007.0, 1004.0, 1005.0, 1010.0, 1010.0, 1006.0, 1007.0, 1010.0, 1004.0, 1008.0, 1007.0, 1007.0, 1007.0, 1001.0, 1004.0, 1020.0, 1018.0, 1008.0, 1009.0, 1008.0, 1008.0, 1005.0, 1007.0, 1004.0, 1003.0, 1001.0, 1006.0, 1007.0, 1005.0, 1008.0, 1008.0, 1007.0, 1010.0, 1011.0, 1007.0, 1006.0, 1009.0, 1010.0, 1011.0, 1005.0, 1006.0, 1006.0, 1007.0, 1007.0, 1007.0, 1001.0, 1002.0, 1009.0, 1005.0, 1006.0, 1004.0, 1002.0, 1005.0, 1006.0, 1004.0, 1006.0, 1005.0, 1000.0, 1001.0, 1003.0, 1000.0, 1003.0, 1007.0, 1004.0, 1006.0, 1006.0, 1003.0, 1002.0, 1006.0, 1006.0, 1006.0, 1005.0, 1004.0, 1001.0, 1004.0, 1005.0, 1006.0, 1009.0, 1008.0, 1008.0, 1007.0, 1006.0, 1007.0, 1011.0, 1010.0, 1007.0, 1006.0, 1006.0, 1004.0, 1007.0, 1009.0, 1010.0, 1008.0, 1007.0, 1011.0, 1008.0, 1006.0, 1008.0, 1014.0, 1012.0, 1011.0, 1005.0, 1006.0, 1009.0, 1004.0, 1005.0, 1006.0, 1003.0, 1005.0, 1003.0, 1001.0, 1005.0, 1004.0, 1004.0, 1006.0, 1003.0, 1002.0, 1007.0, 1006.0, 1021.0, 1009.0, 1008.0, 1012.0, 1011.0, 1010.0, 1006.0, 1007.0, 1006.0, 1005.0, 1006.0, 1008.0, 1008.0, 1005.0, 1004.0, 1008.0, 1011.0, 1010.0, 1009.0, 1011.0, 1005.0, 1004.0, 1011.0, 1010.0, 1007.0, 1004.0, 1008.0]
    },
    "slices": {}
  }
}