{
  "AcquisitionMatrixPE": 64,
  "AcquisitionNumber": 1,
  "AcquisitionTime": "17:46:51.610000",
  "BandwidthPerPixelPhaseEncode": 40.064,
  "BaseResolution": 64,
  "BodyPartExamined": "BRAIN",
  "ConsistencyInfo": "N4_VD13D_LATEST_20130810",
  "ConversionSoftware": "dcm2niix",
  "ConversionSoftwareVersion": "v1.0.20191031",
  "DerivedVendorReportedEchoSpacing": 0.000780002,
  "DeviceSerialNumber": "67007",
  "DwellTime": 5.3e-06,
  "EchoTime": 0.03,
  "EchoTrainLength": 31,
  "EffectiveEchoSpacing": 0.000390001,
  "FlipAngle": 75,
  "ImageOrientationPatientDICOM": [0.99932, -0.029433, 0.0222249, 0.034897, 0.949593, -0.311538],
  "ImageType": [
    "ORIGINAL",
    "PRIMARY",
    "M",
    "ND",
    "NORM",
    "MOSAIC"
],
  "ImagingFrequency": 123.21,
  "InPlanePhaseEncodingDirectionDICOM": "ROW",
  "InstitutionAddress": "Perth_Drive_100_London_Ontario_CA_N6A_5K8",
  "InstitutionName": "Robarts-CFMM",
  "InstitutionalDepartmentName": "CFMM",
  "MRAcquisitionType": "2D",
  "MagneticFieldStrength": 3,
  "Manufacturer": "Siemens",
  "ManufacturersModelName": "Prisma_fit",
  "Modality": "MR",
  "ParallelReductionFactorInPlane": 2,
  "PartialFourier": 1,
  "PatientPosition": "HFS",
  "PercentPhaseFOV": 100,
  "PhaseEncodingDirection": "i",
  "PhaseEncodingSteps": 63,
  "PhaseResolution": 1,
  "PixelBandwidth": 1475,
  "ProcedureStepDescription": "Owen_Naci",
  "ProtocolName": "Resting_State_deep_sed",
  "PulseSequenceDetails": "%SiemensSeq%_ep2d_bold",
  "ReceiveCoilActiveElements": "HEA;HEP",
  "ReceiveCoilName": "Head_32",
  "ReconMatrixPE": 64,
  "RefLinesPE": 24,
  "RepetitionTime": 2,
  "SAR": 0.0848424,
  "ScanOptions": "FS",
  "ScanningSequence": "EP",
  "SequenceName": "_epfid2d1_64",
  "SequenceVariant": "SK",
  "SeriesDescription": "Resting_State_deep_sed",
  "SeriesNumber": 13,
  "ShimSetting": [5245, -6140, -3832, 270, -17, -122, -27, 14],
  "SliceThickness": 3,
  "SliceTiming": [1.92, 1.86, 1.8, 1.74, 1.68, 1.62, 1.56, 1.5, 1.44, 1.38, 1.32, 1.26, 1.2, 1.14, 1.08, 1.02, 0.96, 0.9, 0.84, 0.78, 0.72, 0.66, 0.6, 0.54, 0.48, 0.42, 0.36, 0.3, 0.24, 0.18, 0.12, 0.06, 0],
  "SoftwareVersions": "syngo_MR_D13D",
  "SpacingBetweenSlices": 3.75,
  "StationName": "AWP67007",
  "TaskName": "restdeep",
  "TotalReadoutTime": 0.0245701,
  "TxRefAmp": 253.945,
  "dcmmeta_affine": [
    [-2.9979588985443115, 0.1046910434961319, 0.04475642740726471, 93.71014404296875],
    [0.08829907327890396, 2.848778009414673, -1.1703815460205078, -54.875518798828125],
    [0.06667455285787582, 0.9346143007278442, 3.562401533126831, -87.03402709960938],
    [0.0, 0.0, 0.0, 1.0]
],
  "dcmmeta_reorient_transform": [
    [0.0, -1.0, 0.0, 63.0],
    [1.0, 0.0, 0.0, 0.0],
    [0.0, 0.0, 1.0, 0.0],
    [0.0, 0.0, 0.0, 1.0]
],
  "dcmmeta_shape": [64, 64, 33, 256],
  "dcmmeta_slice_dim": 2,
  "dcmmeta_version": 0.6,
  "global": {
    "const": {
      "AcquisitionMatrix": [0, 64, 64, 0],
      "AngioFlag": "N",
      "BitsAllocated": 16,
      "BitsStored": 12,
      "BodyPartExamined": "BRAIN",
      "Columns": 384,
      "EchoNumbers": 1,
      "EchoTime": 30.0,
      "EchoTrainLength": 31,
      "FlipAngle": 75.0,
      "HighBit": 11,
      "ImageOrientationPatient": [0.99931964510563, -0.0294330235543, 0.02222485164003, 0.03489701348822, 0.94959265263866, -0.3115381076278],
      "ImagePositionPatient": [-596.72967247294, -566.2741152369, 110.71704058199],
      "ImageType": [
        "ORIGINAL",
        "PRIMARY",
        "M",
        "ND",
        "NORM",
        "MOSAIC"
],
      "ImagedNucleus": "1H",
      "ImagingFrequency": 123.210405,
      "InPlanePhaseEncodingDirection": "ROW",
      "MRAcquisitionType": "2D",
      "MagneticFieldStrength": 3.0,
      "Manufacturer": "SIEMENS",
      "ManufacturerModelName": "Prisma_fit",
      "Modality": "MR",
      "NumberOfAverages": 1.0,
      "NumberOfPhaseEncodingSteps": 63,
      "PercentPhaseFieldOfView": 100.0,
      "PercentSampling": 100.0,
      "PerformedProcedureStepStartTime": "162835.248000",
      "PhotometricInterpretation": "MONOCHROME2",
      "PixelBandwidth": 1475.0,
      "PixelRepresentation": 0,
      "PixelSpacing": [3.0, 3.0],
      "ProtocolName": "Resting State_deep_sed",
      "RepetitionTime": 2000.0,
      "Rows": 384,
      "SAR": 0.08484235164639,
      "SamplesPerPixel": 1,
      "ScanOptions": "FS",
      "ScanningSequence": "EP",
      "SequenceName": "*epfid2d1_64",
      "SequenceVariant": "SK",
      "SeriesDescription": "Resting State_deep_sed",
      "SeriesNumber": 13,
      "SeriesTime": "174746.764000",
      "SliceLocation": -64.434856699476,
      "SliceThickness": 3.0,
      "SmallestImagePixelValue": 0,
      "SoftwareVersions": "syngo MR D13D",
      "SpacingBetweenSlices": 3.7500000545764,
      "SpecificCharacterSet": "ISO_IR 100",
      "StudyID": "1",
      "StudyTime": "162835.183000",
      "TimeOfLastCalibration": ["123723.000000", "123723.000000"],
      "TransmitCoilName": "Body",
      "VariableFlipAngleFlag": "N",
      "WindowCenterWidthExplanation": "Algo1",
      "dBdt": 0.0},
    "slices": {}
  },
  "time": {
    "samples": {
      "AcquisitionNumber": [1, 2, 3, 4, 5, 6, 7, 8, 9, 10, 11, 12, 13, 14, 15, 16, 17, 18, 19, 20, 21, 22, 23, 24, 25, 26, 27, 28, 29, 30, 31, 32, 33, 34, 35, 36, 37, 38, 39, 40, 41, 42, 43, 44, 45, 46, 47, 48, 49, 50, 51, 52, 53, 54, 55, 56, 57, 58, 59, 60, 61, 62, 63, 64, 65, 66, 67, 68, 69, 70, 71, 72, 73, 74, 75, 76, 77, 78, 79, 80, 81, 82, 83, 84, 85, 86, 87, 88, 89, 90, 91, 92, 93, 94, 95, 96, 97, 98, 99, 100, 101, 102, 103, 104, 105, 106, 107, 108, 109, 110, 111, 112, 113, 114, 115, 116, 117, 118, 119, 120, 121, 122, 123, 124, 125, 126, 127, 128, 129, 130, 131, 132, 133, 134, 135, 136, 137, 138, 139, 140, 141, 142, 143, 144, 145, 146, 147, 148, 149, 150, 151, 152, 153, 154, 155, 156, 157, 158, 159, 160, 161, 162, 163, 164, 165, 166, 167, 168, 169, 170, 171, 172, 173, 174, 175, 176, 177, 178, 179, 180, 181, 182, 183, 184, 185, 186, 187, 188, 189, 190, 191, 192, 193, 194, 195, 196, 197, 198, 199, 200, 201, 202, 203, 204, 205, 206, 207, 208, 209, 210, 211, 212, 213, 214, 215, 216, 217, 218, 219, 220, 221, 222, 223, 224, 225, 226, 227, 228, 229, 230, 231, 232, 233, 234, 235, 236, 237, 238, 239, 240, 241, 242, 243, 244, 245, 246, 247, 248, 249, 250, 251, 252, 253, 254, 255, 256],
      "AcquisitionTime": ["174651.610000", "174653.610000", "174655.610000", "174657.610000", "174659.610000", "174701.610000", "174703.610000", "174705.610000", "174707.610000", "174709.610000", "174711.610000", "174713.610000", "174715.610000", "174717.610000", "174719.610000", "174721.610000", "174723.610000", "174725.610000", "174727.610000", "174729.610000", "174731.610000", "174733.610000", "174735.610000", "174737.610000", "174739.610000", "174741.610000", "174743.610000", "174745.610000", "174747.610000", "174749.610000", "174751.610000", "174753.610000", "174755.610000", "174757.610000", "174759.610000", "174801.610000", "174803.610000", "174805.610000", "174807.610000", "174809.610000", "174811.610000", "174813.610000", "174815.610000", "174817.610000", "174819.610000", "174821.610000", "174823.610000", "174825.610000", "174827.610000", "174829.610000", "174831.610000", "174833.610000", "174835.610000", "174837.610000", "174839.610000", "174841.610000", "174843.610000", "174845.610000", "174847.610000", "174849.610000", "174851.610000", "174853.610000", "174855.610000", "174857.610000", "174859.610000", "174901.610000", "174903.610000", "174905.610000", "174907.610000", "174909.610000", "174911.610000", "174913.610000", "174915.610000", "174917.610000", "174919.610000", "174921.610000", "174923.610000", "174925.610000", "174927.610000", "174929.610000", "174931.610000", "174933.610000", "174935.610000", "174937.610000", "174939.610000", "174941.610000", "174943.610000", "174945.610000", "174947.610000", "174949.610000", "174951.610000", "174953.610000", "174955.610000", "174957.610000", "174959.610000", "175001.610000", "175003.610000", "175005.610000", "175007.610000", "175009.610000", "175011.610000", "175013.610000", "175015.610000", "175017.610000", "175019.610000", "175021.610000", "175023.610000", "175025.610000", "175027.610000", "175029.610000", "175031.610000", "175033.610000", "175035.610000", "175037.610000", "175039.610000", "175041.610000", "175043.610000", "175045.610000", "175047.610000", "175049.610000", "175051.610000", "175053.610000", "175055.610000", "175057.610000", "175059.610000", "175101.610000", "175103.610000", "175105.610000", "175107.610000", "175109.610000", "175111.610000", "175113.610000", "175115.610000", "175117.610000", "175119.610000", "175121.610000", "175123.610000", "175125.610000", "175127.610000", "175129.610000", "175131.610000", "175133.610000", "175135.610000", "175137.610000", "175139.610000", "175141.610000", "175143.610000", "175145.610000", "175147.610000", "175149.610000", "175151.610000", "175153.610000", "175155.610000", "175157.610000", "175159.610000", "175201.610000", "175203.610000", "175205.610000", "175207.610000", "175209.610000", "175211.610000", "175213.610000", "175215.610000", "175217.610000", "175219.610000", "175221.610000", "175223.610000", "175225.610000", "175227.610000", "175229.610000", "175231.610000", "175233.610000", "175235.610000", "175237.610000", "175239.610000", "175241.610000", "175243.610000", "175245.610000", "175247.612500", "175249.612500", "175251.612500", "175253.612500", "175255.612500", "175257.612500", "175259.612500", "175301.612500", "175303.612500", "175305.612500", "175307.612500", "175309.612500", "175311.612500", "175313.612500", "175315.612500", "175317.612500", "175319.612500", "175321.612500", "175323.612500", "175325.612500", "175327.612500", "175329.612500", "175331.612500", "175333.612500", "175335.612500", "175337.612500", "175339.612500", "175341.612500", "175343.612500", "175345.612500", "175347.612500", "175349.612500", "175351.612500", "175353.612500", "175355.612500", "175357.612500", "175359.612500", "175401.612500", "175403.612500", "175405.612500", "175407.612500", "175409.612500", "175411.612500", "175413.612500", "175415.612500", "175417.612500", "175419.612500", "175421.612500", "175423.612500", "175425.612500", "175427.612500", "175429.612500", "175431.612500", "175433.612500", "175435.612500", "175437.612500", "175439.612500", "175441.612500", "175443.612500", "175445.612500", "175447.612500", "175449.612500", "175451.612500", "175453.612500", "175455.612500", "175457.612500", "175459.612500", "175501.612500", "175503.612500", "175505.612500", "175507.612500", "175509.612500", "175511.612500", "175513.612500", "175515.612500", "175517.612500", "175519.612500", "175521.612500"],
      "ContentTime": ["174746.769000", "174746.773000", "174746.776000", "174746.779000", "174746.781000", "174746.784000", "174746.787000", "174746.790000", "174746.793000", "174746.795000", "174746.798000", "174746.801000", "174746.804000", "174746.806000", "174746.809000", "174746.812000", "174746.814000", "174746.817000", "174746.820000", "174746.822000", "174746.825000", "174746.828000", "174746.831000", "174746.837000", "174746.840000", "174746.842000", "174746.845000", "174746.848000", "174826.751000", "174826.755000", "174826.758000", "174826.761000", "174826.765000", "174826.767000", "174826.770000", "174826.773000", "174826.775000", "174826.778000", "174826.780000", "174826.783000", "174826.786000", "174826.789000", "174826.792000", "174826.794000", "174826.797000", "174826.800000", "174826.802000", "174826.805000", "174906.748000", "174906.751000", "174906.754000", "174906.756000", "174906.759000", "174906.762000", "174906.765000", "174906.767000", "174906.770000", "174906.773000", "174906.775000", "174906.778000", "174906.781000", "174906.783000", "174906.786000", "174906.789000", "174906.792000", "174906.794000", "174906.797000", "174906.800000", "174946.749000", "174946.752000", "174946.755000", "174946.758000", "174946.762000", "174946.764000", "174946.767000", "174946.770000", "174946.773000", "174946.775000", "174946.778000", "174946.781000", "174946.784000", "174946.786000", "174946.789000", "174946.792000", "174946.794000", "174946.797000", "174946.800000", "174946.802000", "175026.749000", "175026.752000", "175026.755000", "175026.758000", "175026.761000", "175026.764000", "175026.766000", "175026.769000", "175026.772000", "175026.774000", "175026.777000", "175026.780000", "175026.782000", "175026.785000", "175026.788000", "175026.790000", "175026.793000", "175026.796000", "175026.798000", "175026.801000", "175106.749000", "175106.752000", "175106.755000", "175106.758000", "175106.761000", "175106.763000", "175106.766000", "175106.769000", "175106.772000", "175106.774000", "175106.777000", "175106.780000", "175106.782000", "175106.785000", "175106.788000", "175106.790000", "175106.793000", "175106.796000", "175106.798000", "175106.801000", "175146.749000", "175146.752000", "175146.755000", "175146.759000", "175146.761000", "175146.764000", "175146.766000", "175146.769000", "175146.772000", "175146.775000", "175146.777000", "175146.780000", "175146.783000", "175146.785000", "175146.788000", "175146.791000", "175146.793000", "175146.796000", "175146.799000", "175146.802000", "175226.749000", "175226.753000", "175226.756000", "175226.759000", "175226.761000", "175226.764000", "175226.767000", "175226.769000", "175226.772000", "175226.775000", "175226.789000", "175226.792000", "175226.795000", "175226.797000", "175226.800000", "175226.803000", "175226.805000", "175226.808000", "175226.811000", "175226.813000", "175306.749000", "175306.753000", "175306.756000", "175306.758000", "175306.761000", "175306.764000", "175306.767000", "175306.770000", "175306.772000", "175306.775000", "175306.778000", "175306.781000", "175306.783000", "175306.786000", "175306.789000", "175306.791000", "175306.794000", "175306.797000", "175306.799000", "175306.802000", "175346.749000", "175346.753000", "175346.755000", "175346.758000", "175346.761000", "175346.763000", "175346.766000", "175346.769000", "175346.772000", "175346.774000", "175346.777000", "175346.780000", "175346.782000", "175346.785000", "175346.788000", "175346.790000", "175346.793000", "175346.796000", "175346.798000", "175346.801000", "175406.749000", "175406.752000", "175406.755000", "175406.758000", "175406.760000", "175406.763000", "175406.766000", "175406.768000", "175406.771000", "175406.774000", "175446.749000", "175446.753000", "175446.755000", "175446.758000", "175446.761000", "175446.764000", "175446.766000", "175446.769000", "175446.772000", "175446.775000", "175446.777000", "175446.780000", "175446.783000", "175446.786000", "175446.788000", "175446.791000", "175446.794000", "175446.796000", "175446.799000", "175446.802000", "175522.269000", "175522.272000", "175522.276000", "175522.279000", "175522.282000", "175522.285000", "175522.287000", "175522.290000", "175522.293000", "175522.296000", "175522.301000", "175522.304000", "175522.307000", "175522.312000", "175522.315000", "175522.318000", "175522.321000", "175522.324000"],
      "InstanceCreationTime": ["174746.769000", "174746.773000", "174746.776000", "174746.779000", "174746.781000", "174746.784000", "174746.787000", "174746.790000", "174746.793000", "174746.795000", "174746.798000", "174746.801000", "174746.804000", "174746.806000", "174746.809000", "174746.812000", "174746.814000", "174746.817000", "174746.820000", "174746.822000", "174746.825000", "174746.828000", "174746.831000", "174746.837000", "174746.840000", "174746.842000", "174746.845000", "174746.848000", "174826.751000", "174826.755000", "174826.758000", "174826.761000", "174826.765000", "174826.767000", "174826.770000", "174826.773000", "174826.775000", "174826.778000", "174826.780000", "174826.783000", "174826.786000", "174826.789000", "174826.792000", "174826.794000", "174826.797000", "174826.800000", "174826.802000", "174826.805000", "174906.748000", "174906.751000", "174906.754000", "174906.756000", "174906.759000", "174906.762000", "174906.765000", "174906.767000", "174906.770000", "174906.773000", "174906.775000", "174906.778000", "174906.781000", "174906.783000", "174906.786000", "174906.789000", "174906.792000", "174906.794000", "174906.797000", "174906.800000", "174946.749000", "174946.752000", "174946.755000", "174946.758000", "174946.762000", "174946.764000", "174946.767000", "174946.770000", "174946.773000", "174946.775000", "174946.778000", "174946.781000", "174946.784000", "174946.786000", "174946.789000", "174946.792000", "174946.794000", "174946.797000", "174946.800000", "174946.802000", "175026.749000", "175026.752000", "175026.755000", "175026.758000", "175026.761000", "175026.764000", "175026.766000", "175026.769000", "175026.772000", "175026.774000", "175026.777000", "175026.780000", "175026.782000", "175026.785000", "175026.788000", "175026.790000", "175026.793000", "175026.796000", "175026.798000", "175026.801000", "175106.749000", "175106.752000", "175106.755000", "175106.758000", "175106.761000", "175106.763000", "175106.766000", "175106.769000", "175106.772000", "175106.774000", "175106.777000", "175106.780000", "175106.782000", "175106.785000", "175106.788000", "175106.790000", "175106.793000", "175106.796000", "175106.798000", "175106.801000", "175146.749000", "175146.752000", "175146.755000", "175146.759000", "175146.761000", "175146.764000", "175146.766000", "175146.769000", "175146.772000", "175146.775000", "175146.777000", "175146.780000", "175146.783000", "175146.785000", "175146.788000", "175146.791000", "175146.793000", "175146.796000", "175146.799000", "175146.802000", "175226.749000", "175226.753000", "175226.756000", "175226.759000", "175226.761000", "175226.764000", "175226.767000", "175226.769000", "175226.772000", "175226.775000", "175226.789000", "175226.792000", "175226.795000", "175226.797000", "175226.800000", "175226.803000", "175226.805000", "175226.808000", "175226.811000", "175226.813000", "175306.749000", "175306.753000", "175306.756000", "175306.758000", "175306.761000", "175306.764000", "175306.767000", "175306.770000", "175306.772000", "175306.775000", "175306.778000", "175306.781000", "175306.783000", "175306.786000", "175306.789000", "175306.791000", "175306.794000", "175306.797000", "175306.799000", "175306.802000", "175346.749000", "175346.753000", "175346.755000", "175346.758000", "175346.761000", "175346.763000", "175346.766000", "175346.769000", "175346.772000", "175346.774000", "175346.777000", "175346.780000", "175346.782000", "175346.785000", "175346.788000", "175346.790000", "175346.793000", "175346.796000", "175346.798000", "175346.801000", "175406.749000", "175406.752000", "175406.755000", "175406.758000", "175406.760000", "175406.763000", "175406.766000", "175406.768000", "175406.771000", "175406.774000", "175446.749000", "175446.753000", "175446.755000", "175446.758000", "175446.761000", "175446.764000", "175446.766000", "175446.769000", "175446.772000", "175446.775000", "175446.777000", "175446.780000", "175446.783000", "175446.786000", "175446.788000", "175446.791000", "175446.794000", "175446.796000", "175446.799000", "175446.802000", "175522.269000", "175522.272000", "175522.276000", "175522.279000", "175522.282000", "175522.285000", "175522.287000", "175522.290000", "175522.293000", "175522.296000", "175522.301000", "175522.304000", "175522.307000", "175522.312000", "175522.315000", "175522.318000", "175522.321000", "175522.324000"],
      "InstanceNumber": [1, 2, 3, 4, 5, 6, 7, 8, 9, 10, 11, 12, 13, 14, 15, 16, 17, 18, 19, 20, 21, 22, 23, 24, 25, 26, 27, 28, 29, 30, 31, 32, 33, 34, 35, 36, 37, 38, 39, 40, 41, 42, 43, 44, 45, 46, 47, 48, 49, 50, 51, 52, 53, 54, 55, 56, 57, 58, 59, 60, 61, 62, 63, 64, 65, 66, 67, 68, 69, 70, 71, 72, 73, 74, 75, 76, 77, 78, 79, 80, 81, 82, 83, 84, 85, 86, 87, 88, 89, 90, 91, 92, 93, 94, 95, 96, 97, 98, 99, 100, 101, 102, 103, 104, 105, 106, 107, 108, 109, 110, 111, 112, 113, 114, 115, 116, 117, 118, 119, 120, 121, 122, 123, 124, 125, 126, 127, 128, 129, 130, 131, 132, 133, 134, 135, 136, 137, 138, 139, 140, 141, 142, 143, 144, 145, 146, 147, 148, 149, 150, 151, 152, 153, 154, 155, 156, 157, 158, 159, 160, 161, 162, 163, 164, 165, 166, 167, 168, 169, 170, 171, 172, 173, 174, 175, 176, 177, 178, 179, 180, 181, 182, 183, 184, 185, 186, 187, 188, 189, 190, 191, 192, 193, 194, 195, 196, 197, 198, 199, 200, 201, 202, 203, 204, 205, 206, 207, 208, 209, 210, 211, 212, 213, 214, 215, 216, 217, 218, 219, 220, 221, 222, 223, 224, 225, 226, 227, 228, 229, 230, 231, 232, 233, 234, 235, 236, 237, 238, 239, 240, 241, 242, 243, 244, 245, 246, 247, 248, 249, 250, 251, 252, 253, 254, 255, 256],
      "LargestImagePixelValue": [742, 1099, 1121, 888, 1061, 1089, 1009, 1080, 1068, 762, 827, 667, 760, 666, 783, 659, 756, 663, 840, 665, 667, 718, 738, 662, 723, 818, 662, 990, 695, 801, 663, 937, 1092, 670, 694, 680, 769, 741, 674, 776, 669, 896, 825, 723, 798, 903, 694, 674, 832, 804, 854, 674, 676, 675, 777, 910, 1095, 720, 669, 795, 717, 670, 703, 670, 773, 671, 955, 695, 1002, 738, 709, 815, 763, 716, 864, 696, 686, 875, 897, 671, 758, 855, 1009, 672, 668, 967, 727, 670, 679, 778, 881, 1030, 738, 669, 704, 704, 816, 671, 684, 914, 887, 993, 673, 674, 868, 889, 944, 841, 673, 675, 986, 1069, 955, 715, 929, 889, 989, 977, 928, 946, 832, 733, 711, 798, 683, 681, 856, 783, 692, 834, 726, 842, 755, 763, 713, 679, 887, 1000, 847, 951, 793, 674, 682, 723, 708, 682, 761, 819, 1107, 854, 963, 738, 676, 769, 725, 704, 892, 951, 917, 828, 806, 736, 703, 677, 682, 732, 776, 749, 804, 668, 783, 1157, 889, 964, 763, 941, 840, 912, 676, 676, 872, 896, 963, 718, 669, 869, 984, 786, 789, 765, 669, 753, 1095, 815, 943, 871, 1076, 978, 829, 835, 709, 686, 761, 734, 879, 703, 668, 741, 763, 898, 918, 782, 677, 707, 916, 743, 865, 832, 956, 668, 980, 859, 1076, 973, 807, 799, 679, 791, 711, 723, 742, 687, 821, 1099, 880, 1014, 897, 962, 722, 671, 669, 686, 668, 765, 693, 838, 1090, 1028, 764, 948, 1009, 1082, 939, 810, 674, 674],
      "WindowCenter": [384.0, 388.0, 385.0, 384.0, 384.0, 380.0, 378.0, 377.0, 376.0, 372.0, 374.0, 373.0, 374.0, 374.0, 376.0, 375.0, 376.0, 375.0, 377.0, 376.0, 377.0, 379.0, 379.0, 378.0, 379.0, 380.0, 379.0, 381.0, 378.0, 379.0, 378.0, 380.0, 381.0, 377.0, 378.0, 378.0, 378.0, 377.0, 378.0, 379.0, 378.0, 380.0, 380.0, 378.0, 378.0, 378.0, 378.0, 378.0, 380.0, 378.0, 379.0, 377.0, 378.0, 378.0, 381.0, 381.0, 381.0, 378.0, 378.0, 380.0, 379.0, 379.0, 379.0, 379.0, 381.0, 380.0, 382.0, 380.0, 382.0, 379.0, 379.0, 380.0, 379.0, 379.0, 380.0, 378.0, 379.0, 381.0, 380.0, 378.0, 379.0, 381.0, 382.0, 379.0, 379.0, 381.0, 379.0, 379.0, 379.0, 381.0, 381.0, 382.0, 379.0, 378.0, 378.0, 379.0, 380.0, 380.0, 379.0, 382.0, 381.0, 382.0, 379.0, 380.0, 382.0, 381.0, 382.0, 380.0, 379.0, 382.0, 384.0, 384.0, 383.0, 382.0, 384.0, 383.0, 383.0, 381.0, 381.0, 380.0, 379.0, 378.0, 378.0, 379.0, 378.0, 378.0, 379.0, 378.0, 378.0, 380.0, 379.0, 379.0, 378.0, 378.0, 379.0, 380.0, 381.0, 382.0, 380.0, 381.0, 380.0, 378.0, 379.0, 379.0, 379.0, 380.0, 382.0, 383.0, 384.0, 382.0, 382.0, 381.0, 380.0, 381.0, 380.0, 382.0, 383.0, 383.0, 383.0, 381.0, 381.0, 380.0, 380.0, 380.0, 380.0, 381.0, 381.0, 380.0, 381.0, 381.0, 383.0, 386.0, 384.0, 384.0, 382.0, 383.0, 382.0, 382.0, 380.0, 381.0, 384.0, 383.0, 383.0, 382.0, 382.0, 384.0, 384.0, 382.0, 382.0, 382.0, 382.0, 383.0, 386.0, 384.0, 385.0, 385.0, 385.0, 384.0, 382.0, 381.0, 380.0, 380.0, 381.0, 380.0, 382.0, 381.0, 380.0, 382.0, 382.0, 383.0, 383.0, 382.0, 381.0, 383.0, 384.0, 383.0, 384.0, 384.0, 385.0, 382.0, 386.0, 384.0, 386.0, 384.0, 382.0, 382.0, 381.0, 382.0, 381.0, 381.0, 382.0, 381.0, 383.0, 385.0, 383.0, 384.0, 383.0, 383.0, 381.0, 380.0, 380.0, 381.0, 380.0, 382.0, 383.0, 385.0, 386.0, 385.0, 383.0, 386.0, 385.0, 385.0, 384.0, 381.0, 381.0, 381.0],
      "WindowWidth": [815.0, 821.0, 813.0, 813.0, 812.0, 805.0, 801.0, 800.0, 798.0, 792.0, 794.0, 793.0, 795.0, 795.0, 798.0, 796.0, 798.0, 797.0, 800.0, 799.0, 801.0, 803.0, 804.0, 803.0, 804.0, 806.0, 804.0, 807.0, 802.0, 803.0, 802.0, 805.0, 806.0, 800.0, 801.0, 802.0, 802.0, 801.0, 802.0, 804.0, 802.0, 805.0, 805.0, 802.0, 802.0, 803.0, 801.0, 802.0, 805.0, 802.0, 804.0, 801.0, 802.0, 803.0, 807.0, 807.0, 807.0, 803.0, 802.0, 805.0, 804.0, 804.0, 804.0, 805.0, 807.0, 805.0, 808.0, 805.0, 809.0, 805.0, 804.0, 805.0, 804.0, 803.0, 805.0, 803.0, 805.0, 807.0, 806.0, 802.0, 805.0, 808.0, 808.0, 804.0, 804.0, 807.0, 804.0, 803.0, 805.0, 807.0, 807.0, 808.0, 803.0, 803.0, 803.0, 803.0, 806.0, 805.0, 805.0, 808.0, 807.0, 808.0, 805.0, 805.0, 809.0, 808.0, 808.0, 806.0, 805.0, 810.0, 813.0, 813.0, 811.0, 809.0, 812.0, 810.0, 810.0, 808.0, 807.0, 806.0, 804.0, 802.0, 802.0, 803.0, 802.0, 803.0, 804.0, 803.0, 803.0, 805.0, 803.0, 804.0, 803.0, 803.0, 804.0, 805.0, 807.0, 808.0, 805.0, 807.0, 805.0, 802.0, 804.0, 804.0, 805.0, 806.0, 809.0, 812.0, 812.0, 808.0, 810.0, 807.0, 806.0, 807.0, 806.0, 809.0, 811.0, 810.0, 810.0, 808.0, 807.0, 806.0, 807.0, 805.0, 806.0, 808.0, 807.0, 806.0, 808.0, 809.0, 812.0, 816.0, 812.0, 813.0, 809.0, 812.0, 808.0, 809.0, 807.0, 808.0, 812.0, 811.0, 810.0, 809.0, 810.0, 812.0, 813.0, 809.0, 809.0, 809.0, 810.0, 812.0, 816.0, 813.0, 815.0, 813.0, 815.0, 812.0, 809.0, 808.0, 807.0, 805.0, 808.0, 806.0, 809.0, 807.0, 807.0, 809.0, 809.0, 811.0, 811.0, 808.0, 808.0, 812.0, 813.0, 811.0, 813.0, 812.0, 814.0, 810.0, 816.0, 813.0, 815.0, 812.0, 809.0, 810.0, 807.0, 809.0, 809.0, 808.0, 809.0, 809.0, 812.0, 814.0, 811.0, 813.0, 811.0, 810.0, 809.0, 805.0, 806.0, 807.0, 806.0, 810.0, 812.0, 814.0, 817.0, 815.0, 812.0, 815.0, 814.0, 815.0, 813.0, 808.0, 809.0, 807.0]
    },
    "slices": {}
  }
}