{
  "AcquisitionMatrixPE": 64,
  "AcquisitionNumber": 5,
  "AcquisitionTime": "18:18:59.145000",
  "BandwidthPerPixelPhaseEncode": 40.064,
  "BaseResolution": 64,
  "BodyPartExamined": "BRAIN",
  "ConsistencyInfo": "N4_VD13D_LATEST_20130810",
  "ConversionSoftware": "dcm2niix",
  "ConversionSoftwareVersion": "v1.0.20191031",
  "DerivedVendorReportedEchoSpacing": 0.000780002,
  "DeviceSerialNumber": "67007",
  "DwellTime": 5.3e-06,
  "EchoTime": 0.03,
  "EchoTrainLength": 31,
  "EffectiveEchoSpacing": 0.000390001,
  "FlipAngle": 75,
  "ImageOrientationPatientDICOM": [0.99932, -0.029433, 0.0222249, 0.034897, 0.949593, -0.311538],
  "ImageType": [
    "ORIGINAL",
    "PRIMARY",
    "M",
    "ND",
    "NORM",
    "MOSAIC"
],
  "ImagingFrequency": 123.21,
  "InPlanePhaseEncodingDirectionDICOM": "ROW",
  "InstitutionAddress": "Perth_Drive_100_London_Ontario_CA_N6A_5K8",
  "InstitutionName": "Robarts-CFMM",
  "InstitutionalDepartmentName": "CFMM",
  "MRAcquisitionType": "2D",
  "MagneticFieldStrength": 3,
  "Manufacturer": "Siemens",
  "ManufacturersModelName": "Prisma_fit",
  "Modality": "MR",
  "ParallelReductionFactorInPlane": 2,
  "PartialFourier": 1,
  "PatientPosition": "HFS",
  "PercentPhaseFOV": 100,
  "PhaseEncodingDirection": "i",
  "PhaseEncodingSteps": 63,
  "PhaseResolution": 1,
  "PixelBandwidth": 1475,
  "ProcedureStepDescription": "Owen_Naci",
  "ProtocolName": "Resting_State_recov",
  "PulseSequenceDetails": "%SiemensSeq%_ep2d_bold",
  "ReceiveCoilActiveElements": "HEA;HEP",
  "ReceiveCoilName": "Head_32",
  "ReconMatrixPE": 64,
  "RefLinesPE": 24,
  "RepetitionTime": 2,
  "SAR": 0.0848424,
  "ScanOptions": "FS",
  "ScanningSequence": "EP",
  "SequenceName": "_epfid2d1_64",
  "SequenceVariant": "SK",
  "SeriesDescription": "Resting_State_recov",
  "SeriesNumber": 22,
  "ShimSetting": [5245, -6140, -3832, 270, -17, -122, -27, 14],
  "SliceThickness": 3,
  "SliceTiming": [1.92, 1.86, 1.8, 1.74, 1.68, 1.62, 1.56, 1.5, 1.44, 1.38, 1.32, 1.26, 1.2, 1.14, 1.08, 1.02, 0.96, 0.9, 0.84, 0.78, 0.72, 0.66, 0.6, 0.54, 0.48, 0.42, 0.36, 0.3, 0.24, 0.18, 0.12, 0.06, 0],
  "SoftwareVersions": "syngo_MR_D13D",
  "SpacingBetweenSlices": 3.75,
  "StationName": "AWP67007",
  "TaskName": "rest",
  "TotalReadoutTime": 0.0245701,
  "TxRefAmp": 253.945,
  "dcmmeta_affine": [
    [-2.9979588985443115, 0.1046910434961319, 0.04475642740726471, 93.71014404296875],
    [0.08829907327890396, 2.848778009414673, -1.1703815460205078, -54.875518798828125],
    [0.06667455285787582, 0.9346143007278442, 3.562401533126831, -87.03402709960938],
    [0.0, 0.0, 0.0, 1.0]
],
  "dcmmeta_reorient_transform": [
    [0.0, -1.0, 0.0, 63.0],
    [1.0, 0.0, 0.0, 0.0],
    [0.0, 0.0, 1.0, 0.0],
    [0.0, 0.0, 0.0, 1.0]
],
  "dcmmeta_shape": [64, 64, 33, 122],
  "dcmmeta_slice_dim": 2,
  "dcmmeta_version": 0.6,
  "global": {
    "const": {
      "AcquisitionMatrix": [0, 64, 64, 0],
      "AngioFlag": "N",
      "BitsAllocated": 16,
      "BitsStored": 12,
      "BodyPartExamined": "BRAIN",
      "Columns": 384,
      "EchoNumbers": 1,
      "EchoTime": 30.0,
      "EchoTrainLength": 31,
      "FlipAngle": 75.0,
      "HighBit": 11,
      "ImageOrientationPatient": [0.99931964510563, -0.0294330235543, 0.02222485164003, 0.03489701348822, 0.94959265263866, -0.3115381076278],
      "ImagePositionPatient": [-596.72967247294, -566.2741152369, 110.71704058199],
      "ImageType": [
        "ORIGINAL",
        "PRIMARY",
        "M",
        "ND",
        "NORM",
        "MOSAIC"
],
      "ImagedNucleus": "1H",
      "ImagingFrequency": 123.210426,
      "InPlanePhaseEncodingDirection": "ROW",
      "MRAcquisitionType": "2D",
      "MagneticFieldStrength": 3.0,
      "Manufacturer": "SIEMENS",
      "ManufacturerModelName": "Prisma_fit",
      "Modality": "MR",
      "NumberOfAverages": 1.0,
      "NumberOfPhaseEncodingSteps": 63,
      "PercentPhaseFieldOfView": 100.0,
      "PercentSampling": 100.0,
      "PerformedProcedureStepStartTime": "162835.248000",
      "PhotometricInterpretation": "MONOCHROME2",
      "PixelBandwidth": 1475.0,
      "PixelRepresentation": 0,
      "PixelSpacing": [3.0, 3.0],
      "ProtocolName": "Resting State_recov",
      "RepetitionTime": 2000.0,
      "Rows": 384,
      "SAR": 0.08484235164639,
      "SamplesPerPixel": 1,
      "ScanOptions": "FS",
      "ScanningSequence": "EP",
      "SequenceName": "*epfid2d1_64",
      "SequenceVariant": "SK",
      "SeriesDescription": "Resting State_recov",
      "SeriesNumber": 22,
      "SeriesTime": "181946.751000",
      "SliceLocation": -64.434856699476,
      "SliceThickness": 3.0,
      "SmallestImagePixelValue": 0,
      "SoftwareVersions": "syngo MR D13D",
      "SpacingBetweenSlices": 3.7500000545764,
      "SpecificCharacterSet": "ISO_IR 100",
      "StudyID": "1",
      "StudyTime": "162835.183000",
      "TimeOfLastCalibration": ["123723.000000", "123723.000000"],
      "TransmitCoilName": "Body",
      "VariableFlipAngleFlag": "N",
      "WindowCenterWidthExplanation": "Algo1",
      "dBdt": 0.0},
    "slices": {}
  },
  "time": {
    "samples": {
      "AcquisitionNumber": [5, 6, 10, 11, 13, 18, 22, 24, 30, 31, 32, 33, 36, 44, 45, 46, 47, 48, 49, 50, 64, 65, 66, 67, 68, 71, 73, 76, 77, 79, 81, 86, 88, 89, 100, 101, 102, 109, 115, 116, 123, 124, 125, 126, 127, 128, 130, 131, 132, 133, 134, 135, 136, 137, 138, 139, 141, 142, 149, 150, 151, 152, 154, 158, 160, 162, 164, 166, 168, 170, 171, 176, 177, 178, 179, 180, 182, 183, 184, 185, 186, 187, 188, 189, 192, 193, 194, 195, 196, 197, 198, 199, 200, 201, 203, 204, 206, 207, 208, 209, 211, 212, 213, 214, 215, 216, 217, 218, 219, 221, 222, 223, 225, 227, 229, 230, 231, 235, 237, 247, 250, 251],
      "AcquisitionTime": ["181859.145000", "181901.145000", "181909.145000", "181911.145000", "181915.145000", "181925.145000", "181933.145000", "181937.145000", "181949.145000", "181951.145000", "181953.145000", "181955.145000", "182001.145000", "182017.145000", "182019.145000", "182021.145000", "182023.145000", "182025.145000", "182027.145000", "182029.145000", "182057.145000", "182059.145000", "182101.145000", "182103.145000", "182105.145000", "182111.145000", "182115.145000", "182121.145000", "182123.145000", "182127.145000", "182131.145000", "182141.145000", "182145.145000", "182147.145000", "182209.145000", "182211.145000", "182213.145000", "182227.145000", "182239.145000", "182241.145000", "182255.145000", "182257.145000", "182259.145000", "182301.145000", "182303.145000", "182305.145000", "182309.145000", "182311.145000", "182313.145000", "182315.145000", "182317.145000", "182319.145000", "182321.145000", "182323.145000", "182325.145000", "182327.145000", "182331.145000", "182333.145000", "182347.145000", "182349.145000", "182351.145000", "182353.145000", "182357.145000", "182405.145000", "182409.145000", "182413.145000", "182417.145000", "182421.145000", "182425.145000", "182429.145000", "182431.145000", "182441.145000", "182443.145000", "182445.145000", "182447.145000", "182449.145000", "182453.145000", "182455.145000", "182457.145000", "182459.145000", "182501.145000", "182503.145000", "182505.145000", "182507.145000", "182513.145000", "182515.145000", "182517.145000", "182519.145000", "182521.145000", "182523.145000", "182525.147500", "182527.147500", "182529.147500", "182531.147500", "182535.147500", "182537.147500", "182541.147500", "182543.147500", "182545.147500", "182547.147500", "182551.147500", "182553.147500", "182555.147500", "182557.147500", "182559.147500", "182601.147500", "182603.147500", "182605.147500", "182607.147500", "182611.147500", "182613.147500", "182615.147500", "182619.147500", "182623.147500", "182627.147500", "182629.147500", "182631.147500", "182639.147500", "182643.147500", "182703.147500", "182709.147500", "182711.147500"],
      "ContentTime": ["181946.770000", "181946.773000", "181946.784000", "181946.787000", "181946.795000", "181946.821000", "181946.834000", "181946.840000", "182026.751000", "182026.759000", "182026.761000", "182026.764000", "182026.773000", "182026.795000", "182026.798000", "182026.800000", "182026.803000", "182026.806000", "182106.749000", "182106.752000", "182106.797000", "182106.800000", "182106.802000", "182106.805000", "182106.808000", "182146.754000", "182146.760000", "182146.769000", "182146.772000", "182146.778000", "182146.789000", "182146.803000", "182146.809000", "182226.749000", "182226.780000", "182226.782000", "182226.785000", "182306.749000", "182306.765000", "182306.768000", "182306.793000", "182306.795000", "182306.798000", "182306.801000", "182306.804000", "182306.806000", "182346.751000", "182346.754000", "182346.756000", "182346.759000", "182346.762000", "182346.765000", "182346.767000", "182346.770000", "182346.773000", "182346.776000", "182346.782000", "182346.784000", "182406.749000", "182406.752000", "182406.755000", "182406.757000", "182406.763000", "182406.774000", "182446.753000", "182446.758000", "182446.763000", "182446.769000", "182446.774000", "182446.780000", "182446.782000", "182446.796000", "182446.798000", "182446.805000", "182526.749000", "182526.752000", "182526.758000", "182526.760000", "182526.763000", "182526.766000", "182526.768000", "182526.771000", "182526.774000", "182526.777000", "182526.785000", "182526.788000", "182526.791000", "182526.793000", "182526.796000", "182526.799000", "182526.801000", "182606.748000", "182606.751000", "182606.754000", "182606.759000", "182606.762000", "182606.768000", "182606.771000", "182606.774000", "182606.776000", "182606.782000", "182606.785000", "182606.788000", "182606.791000", "182606.794000", "182606.797000", "182606.800000", "182606.802000", "182646.749000", "182646.755000", "182646.758000", "182646.761000", "182646.766000", "182646.771000", "182646.776000", "182646.779000", "182646.782000", "182646.792000", "182646.798000", "182721.875000", "182721.890000", "182721.894000"],
      "InstanceCreationTime": ["181946.770000", "181946.773000", "181946.784000", "181946.787000", "181946.795000", "181946.821000", "181946.834000", "181946.840000", "182026.751000", "182026.759000", "182026.761000", "182026.764000", "182026.773000", "182026.795000", "182026.798000", "182026.800000", "182026.803000", "182026.806000", "182106.749000", "182106.752000", "182106.797000", "182106.800000", "182106.802000", "182106.805000", "182106.808000", "182146.754000", "182146.760000", "182146.769000", "182146.772000", "182146.778000", "182146.789000", "182146.803000", "182146.809000", "182226.749000", "182226.780000", "182226.782000", "182226.785000", "182306.749000", "182306.765000", "182306.768000", "182306.793000", "182306.795000", "182306.798000", "182306.801000", "182306.804000", "182306.806000", "182346.751000", "182346.754000", "182346.756000", "182346.759000", "182346.762000", "182346.765000", "182346.767000", "182346.770000", "182346.773000", "182346.776000", "182346.782000", "182346.784000", "182406.749000", "182406.752000", "182406.755000", "182406.757000", "182406.763000", "182406.774000", "182446.753000", "182446.758000", "182446.763000", "182446.769000", "182446.774000", "182446.780000", "182446.782000", "182446.796000", "182446.798000", "182446.805000", "182526.749000", "182526.752000", "182526.758000", "182526.760000", "182526.763000", "182526.766000", "182526.768000", "182526.771000", "182526.774000", "182526.777000", "182526.785000", "182526.788000", "182526.791000", "182526.793000", "182526.796000", "182526.799000", "182526.801000", "182606.748000", "182606.751000", "182606.754000", "182606.759000", "182606.762000", "182606.768000", "182606.771000", "182606.774000", "182606.776000", "182606.782000", "182606.785000", "182606.788000", "182606.791000", "182606.794000", "182606.797000", "182606.800000", "182606.802000", "182646.749000", "182646.755000", "182646.758000", "182646.761000", "182646.766000", "182646.771000", "182646.776000", "182646.779000", "182646.782000", "182646.792000", "182646.798000", "182721.875000", "182721.890000", "182721.894000"],
      "InstanceNumber": [5, 6, 10, 11, 13, 18, 22, 24, 30, 31, 32, 33, 36, 44, 45, 46, 47, 48, 49, 50, 64, 65, 66, 67, 68, 71, 73, 76, 77, 79, 81, 86, 88, 89, 100, 101, 102, 109, 115, 116, 123, 124, 125, 126, 127, 128, 130, 131, 132, 133, 134, 135, 136, 137, 138, 139, 141, 142, 149, 150, 151, 152, 154, 158, 160, 162, 164, 166, 168, 170, 171, 176, 177, 178, 179, 180, 182, 183, 184, 185, 186, 187, 188, 189, 192, 193, 194, 195, 196, 197, 198, 199, 200, 201, 203, 204, 206, 207, 208, 209, 211, 212, 213, 214, 215, 216, 217, 218, 219, 221, 222, 223, 225, 227, 229, 230, 231, 235, 237, 247, 250, 251],
      "LargestImagePixelValue": [788, 806, 767, 833, 682, 694, 714, 727, 765, 825, 646, 677, 786, 730, 720, 687, 808, 796, 658, 708, 715, 742, 658, 657, 679, 716, 770, 685, 699, 681, 663, 792, 726, 773, 727, 705, 745, 765, 762, 767, 726, 723, 804, 718, 750, 716, 730, 754, 787, 791, 772, 793, 764, 771, 745, 735, 724, 725, 851, 732, 684, 752, 745, 723, 742, 767, 706, 678, 816, 736, 755, 735, 732, 761, 789, 781, 724, 738, 767, 795, 752, 663, 755, 869, 870, 720, 757, 758, 738, 756, 816, 821, 711, 662, 681, 707, 722, 731, 780, 764, 725, 706, 764, 730, 759, 687, 701, 789, 786, 789, 817, 838, 682, 769, 781, 801, 798, 787, 789, 839, 708, 751],
      "WindowCenter": [377.0, 376.0, 375.0, 375.0, 375.0, 374.0, 374.0, 374.0, 375.0, 375.0, 373.0, 374.0, 375.0, 374.0, 374.0, 373.0, 375.0, 375.0, 373.0, 374.0, 375.0, 375.0, 374.0, 374.0, 375.0, 375.0, 376.0, 373.0, 374.0, 374.0, 375.0, 377.0, 377.0, 377.0, 375.0, 374.0, 375.0, 373.0, 374.0, 375.0, 375.0, 376.0, 376.0, 375.0, 375.0, 375.0, 376.0, 376.0, 376.0, 377.0, 376.0, 376.0, 376.0, 376.0, 375.0, 375.0, 374.0, 374.0, 376.0, 375.0, 375.0, 375.0, 374.0, 375.0, 375.0, 376.0, 374.0, 374.0, 375.0, 374.0, 375.0, 375.0, 376.0, 376.0, 376.0, 375.0, 374.0, 375.0, 375.0, 375.0, 375.0, 375.0, 377.0, 378.0, 376.0, 374.0, 374.0, 373.0, 374.0, 375.0, 375.0, 375.0, 374.0, 374.0, 374.0, 374.0, 374.0, 375.0, 376.0, 375.0, 376.0, 376.0, 376.0, 376.0, 376.0, 374.0, 374.0, 376.0, 375.0, 376.0, 376.0, 376.0, 374.0, 376.0, 376.0, 376.0, 376.0, 376.0, 376.0, 375.0, 374.0, 376.0],
      "WindowWidth": [800.0, 799.0, 797.0, 797.0, 797.0, 795.0, 794.0, 795.0, 796.0, 796.0, 793.0, 794.0, 797.0, 795.0, 795.0, 794.0, 797.0, 797.0, 794.0, 795.0, 796.0, 796.0, 796.0, 796.0, 797.0, 797.0, 799.0, 794.0, 795.0, 795.0, 797.0, 800.0, 799.0, 800.0, 796.0, 795.0, 796.0, 793.0, 795.0, 796.0, 797.0, 798.0, 799.0, 797.0, 797.0, 797.0, 798.0, 799.0, 799.0, 799.0, 799.0, 798.0, 798.0, 798.0, 796.0, 796.0, 795.0, 795.0, 798.0, 796.0, 797.0, 798.0, 795.0, 797.0, 796.0, 798.0, 794.0, 796.0, 796.0, 794.0, 795.0, 797.0, 798.0, 798.0, 797.0, 796.0, 795.0, 796.0, 797.0, 796.0, 796.0, 796.0, 801.0, 801.0, 799.0, 796.0, 795.0, 793.0, 795.0, 796.0, 797.0, 796.0, 795.0, 794.0, 796.0, 795.0, 795.0, 796.0, 797.0, 796.0, 798.0, 798.0, 798.0, 798.0, 798.0, 796.0, 796.0, 798.0, 797.0, 798.0, 799.0, 798.0, 796.0, 798.0, 797.0, 798.0, 797.0, 798.0, 799.0, 797.0, 795.0, 799.0]
    },
    "slices": {}
  }
}