{
  "AcquisitionMatrixPE": 64,
  "AcquisitionNumber": 1,
  "AcquisitionTime": "13:54:29.520000",
  "BandwidthPerPixelPhaseEncode": 40.064,
  "BaseResolution": 64,
  "BodyPartExamined": "BRAIN",
  "ConsistencyInfo": "N4_VD13D_LATEST_20130810",
  "ConversionSoftware": "dcm2niix",
  "ConversionSoftwareVersion": "v1.0.20191031",
  "DerivedVendorReportedEchoSpacing": 0.000780002,
  "DeviceSerialNumber": "67007",
  "DwellTime": 5.3e-06,
  "EchoTime": 0.03,
  "EchoTrainLength": 31,
  "EffectiveEchoSpacing": 0.000390001,
  "FlipAngle": 75,
  "ImageOrientationPatientDICOM": [0.999163, 0.0403891, -0.00647688, -0.0401305, 0.998545, 0.0360291],
  "ImageType": [
    "ORIGINAL",
    "PRIMARY",
    "M",
    "ND",
    "NORM",
    "MOSAIC"
],
  "ImagingFrequency": 123.211,
  "InPlanePhaseEncodingDirectionDICOM": "ROW",
  "InstitutionAddress": "Perth_Drive_100_London_Ontario_CA_N6A_5K8",
  "InstitutionName": "Robarts-CFMM",
  "InstitutionalDepartmentName": "CFMM",
  "MRAcquisitionType": "2D",
  "MagneticFieldStrength": 3,
  "Manufacturer": "Siemens",
  "ManufacturersModelName": "Prisma_fit",
  "Modality": "MR",
  "ParallelReductionFactorInPlane": 2,
  "PartialFourier": 1,
  "PatientPosition": "HFS",
  "PercentPhaseFOV": 100,
  "PhaseEncodingDirection": "i",
  "PhaseEncodingSteps": 63,
  "PhaseResolution": 1,
  "PixelBandwidth": 1475,
  "ProcedureStepDescription": "Owen_Naci",
  "ProtocolName": "taken",
  "PulseSequenceDetails": "%SiemensSeq%_ep2d_bold",
  "ReceiveCoilActiveElements": "HEA;HEP",
  "ReceiveCoilName": "Head_32",
  "ReconMatrixPE": 64,
  "RefLinesPE": 24,
  "RepetitionTime": 2,
  "SAR": 0.121187,
  "ScanOptions": "FS",
  "ScanningSequence": "EP",
  "SequenceName": "_epfid2d1_64",
  "SequenceVariant": "SK",
  "SeriesDescription": "taken",
  "SeriesNumber": 20,
  "ShimSetting": [5234, -6081, -3885, 371, -4, 186, 75, -1],
  "SliceThickness": 3,
  "SliceTiming": [1.92, 1.86, 1.8, 1.74, 1.68, 1.62, 1.56, 1.5, 1.44, 1.38, 1.32, 1.26, 1.2, 1.14, 1.08, 1.02, 0.96, 0.9, 0.84, 0.78, 0.72, 0.66, 0.6, 0.54, 0.48, 0.42, 0.36, 0.3, 0.24, 0.18, 0.12, 0.06, 0],
  "SoftwareVersions": "syngo_MR_D13D",
  "SpacingBetweenSlices": 3.75,
  "StationName": "AWP67007",
  "TaskName": "audio",
  "TotalReadoutTime": 0.0245701,
  "TxRefAmp": 268.999,
  "dcmmeta_affine": [
    [-2.9974892139434814, -0.1203915998339653, -0.02970988303422928, 101.68151092529297],
    [-0.12116724252700806, 2.995634078979492, 0.1340213268995285, -70.62848663330078],
    [-0.01943063735961914, -0.10808729380369186, 3.7474865913391113, -21.562219619750977],
    [0.0, 0.0, 0.0, 1.0]
],
  "dcmmeta_reorient_transform": [
    [0.0, -1.0, 0.0, 63.0],
    [1.0, 0.0, 0.0, 0.0],
    [0.0, 0.0, 1.0, 0.0],
    [0.0, 0.0, 0.0, 1.0]
],
  "dcmmeta_shape": [64, 64, 33, 155],
  "dcmmeta_slice_dim": 2,
  "dcmmeta_version": 0.6,
  "global": {
    "const": {
      "AcquisitionMatrix": [0, 64, 64, 0],
      "AngioFlag": "N",
      "BitsAllocated": 16,
      "BitsStored": 12,
      "BodyPartExamined": "BRAIN",
      "Columns": 384,
      "EchoNumbers": 1,
      "EchoTime": 30.0,
      "EchoTrainLength": 31,
      "FlipAngle": 75.0,
      "HighBit": 11,
      "ImageOrientationPatient": [0.99916303583197, 0.04038908097244, -0.0064768792826, -0.0401305329621, 0.99854466323311, 0.03602909730837],
      "ImagePositionPatient": [-554.43244362836, -616.7846509019, -42.556783698562],
      "ImageType": [
        "ORIGINAL",
        "PRIMARY",
        "M",
        "ND",
        "NORM",
        "MOSAIC"
],
      "ImagedNucleus": "1H",
      "ImagingFrequency": 123.211125,
      "InPlanePhaseEncodingDirection": "ROW",
      "MRAcquisitionType": "2D",
      "MagneticFieldStrength": 3.0,
      "Manufacturer": "SIEMENS",
      "ManufacturerModelName": "Prisma_fit",
      "Modality": "MR",
      "NumberOfAverages": 1.0,
      "NumberOfPhaseEncodingSteps": 63,
      "PercentPhaseFieldOfView": 100.0,
      "PercentSampling": 100.0,
      "PerformedProcedureStepStartTime": "120140.640000",
      "PhotometricInterpretation": "MONOCHROME2",
      "PixelBandwidth": 1475.0,
      "PixelRepresentation": 0,
      "PixelSpacing": [3.0, 3.0],
      "ProtocolName": "taken",
      "RepetitionTime": 2000.0,
      "Rows": 384,
      "SAR": 0.12118677635295,
      "SamplesPerPixel": 1,
      "ScanOptions": "FS",
      "ScanningSequence": "EP",
      "SequenceName": "*epfid2d1_64",
      "SequenceVariant": "SK",
      "SeriesDescription": "taken",
      "SeriesNumber": 20,
      "SeriesTime": "135523.980000",
      "SliceLocation": -24.877546230105,
      "SliceThickness": 3.0,
      "SmallestImagePixelValue": 0,
      "SoftwareVersions": "syngo MR D13D",
      "SpacingBetweenSlices": 3.7500000199299,
      "SpecificCharacterSet": "ISO_IR 100",
      "StudyID": "1",
      "StudyTime": "120140.594000",
      "TimeOfLastCalibration": ["123723.000000", "123723.000000"],
      "TransmitCoilName": "Body",
      "VariableFlipAngleFlag": "N",
      "WindowCenterWidthExplanation": "Algo1",
      "dBdt": 0.0},
    "slices": {}
  },
  "time": {
    "samples": {
      "AcquisitionNumber": [1, 2, 3, 4, 5, 6, 7, 8, 9, 10, 11, 12, 13, 14, 15, 16, 17, 18, 19, 20, 21, 22, 23, 24, 25, 26, 27, 28, 29, 30, 31, 32, 33, 34, 35, 36, 37, 38, 39, 40, 41, 42, 43, 44, 45, 46, 47, 48, 49, 50, 51, 52, 53, 54, 55, 56, 57, 58, 59, 60, 61, 62, 63, 64, 65, 66, 67, 68, 69, 70, 71, 72, 73, 74, 75, 76, 77, 78, 79, 80, 81, 82, 83, 84, 85, 86, 87, 88, 89, 90, 91, 92, 93, 94, 95, 96, 97, 98, 99, 100, 101, 102, 103, 104, 105, 106, 107, 108, 109, 110, 111, 112, 113, 114, 115, 116, 117, 118, 119, 120, 121, 122, 123, 124, 125, 126, 127, 128, 129, 130, 131, 132, 133, 134, 135, 136, 137, 138, 139, 140, 141, 142, 143, 144, 145, 146, 147, 148, 149, 150, 151, 152, 153, 154, 155],
      "AcquisitionTime": ["135429.520000", "135431.520000", "135433.520000", "135435.520000", "135437.520000", "135439.520000", "135441.520000", "135443.520000", "135445.520000", "135447.520000", "135449.520000", "135451.520000", "135453.520000", "135455.520000", "135457.520000", "135459.520000", "135501.520000", "135503.520000", "135505.520000", "135507.520000", "135509.520000", "135511.520000", "135513.520000", "135515.520000", "135517.520000", "135519.520000", "135521.520000", "135523.520000", "135525.520000", "135527.520000", "135529.520000", "135531.520000", "135533.520000", "135535.520000", "135537.520000", "135539.520000", "135541.520000", "135543.520000", "135545.520000", "135547.520000", "135549.520000", "135551.520000", "135553.520000", "135555.520000", "135557.520000", "135559.520000", "135601.520000", "135603.520000", "135605.520000", "135607.520000", "135609.520000", "135611.520000", "135613.520000", "135615.520000", "135617.520000", "135619.520000", "135621.520000", "135623.520000", "135625.520000", "135627.520000", "135629.520000", "135631.520000", "135633.520000", "135635.520000", "135637.520000", "135639.520000", "135641.520000", "135643.520000", "135645.520000", "135647.520000", "135649.520000", "135651.520000", "135653.520000", "135655.520000", "135657.520000", "135659.520000", "135701.520000", "135703.520000", "135705.520000", "135707.520000", "135709.520000", "135711.520000", "135713.520000", "135715.520000", "135717.520000", "135719.520000", "135721.520000", "135723.520000", "135725.520000", "135727.520000", "135729.520000", "135731.520000", "135733.520000", "135735.520000", "135737.520000", "135739.520000", "135741.520000", "135743.520000", "135745.520000", "135747.520000", "135749.520000", "135751.520000", "135753.520000", "135755.520000", "135757.520000", "135759.520000", "135801.520000", "135803.520000", "135805.520000", "135807.520000", "135809.520000", "135811.520000", "135813.520000", "135815.520000", "135817.520000", "135819.520000", "135821.520000", "135823.520000", "135825.520000", "135827.520000", "135829.522500", "135831.522500", "135833.522500", "135835.522500", "135837.522500", "135839.522500", "135841.522500", "135843.522500", "135845.522500", "135847.522500", "135849.522500", "135851.522500", "135853.522500", "135855.522500", "135857.522500", "135859.522500", "135901.522500", "135903.522500", "135905.522500", "135907.522500", "135909.522500", "135911.522500", "135913.522500", "135915.522500", "135917.522500", "135919.522500", "135921.522500", "135923.522500", "135925.522500", "135927.522500", "135929.522500", "135931.522500", "135933.522500", "135935.522500", "135937.522500"],
      "ContentTime": ["135523.985000", "135523.989000", "135523.992000", "135523.995000", "135523.998000", "135524.002000", "135524.004000", "135524.007000", "135524.010000", "135524.012000", "135524.015000", "135524.018000", "135524.021000", "135524.024000", "135524.027000", "135524.029000", "135524.032000", "135524.035000", "135524.038000", "135524.041000", "135524.044000", "135524.047000", "135524.050000", "135524.052000", "135524.059000", "135524.062000", "135603.977000", "135603.981000", "135603.984000", "135603.987000", "135603.990000", "135603.993000", "135603.995000", "135604.000000", "135604.003000", "135604.005000", "135604.008000", "135604.011000", "135604.014000", "135604.017000", "135604.019000", "135604.022000", "135604.025000", "135604.028000", "135604.031000", "135604.034000", "135643.978000", "135643.981000", "135643.984000", "135643.987000", "135643.989000", "135643.992000", "135643.995000", "135644.000000", "135644.002000", "135644.005000", "135644.008000", "135644.011000", "135644.014000", "135644.017000", "135644.020000", "135644.023000", "135644.025000", "135644.028000", "135644.031000", "135644.034000", "135723.978000", "135723.981000", "135723.984000", "135723.987000", "135723.990000", "135723.993000", "135723.996000", "135724.000000", "135724.003000", "135724.005000", "135724.008000", "135724.011000", "135724.014000", "135724.017000", "135724.020000", "135724.022000", "135724.025000", "135724.028000", "135724.030000", "135724.033000", "135803.979000", "135803.982000", "135803.985000", "135803.988000", "135803.991000", "135803.994000", "135803.997000", "135804.001000", "135804.004000", "135804.007000", "135804.010000", "135804.012000", "135804.015000", "135804.018000", "135804.021000", "135804.024000", "135804.026000", "135804.029000", "135804.032000", "135804.034000", "135843.978000", "135843.982000", "135843.985000", "135843.988000", "135843.990000", "135843.993000", "135843.996000", "135844.011000", "135844.013000", "135844.017000", "135844.019000", "135844.022000", "135844.025000", "135844.028000", "135844.031000", "135844.034000", "135844.036000", "135844.039000", "135844.042000", "135844.045000", "135923.979000", "135923.988000", "135923.991000", "135923.994000", "135923.997000", "135924.004000", "135924.013000", "135924.017000", "135924.020000", "135924.028000", "135924.031000", "135924.034000", "135924.037000", "135924.039000", "135924.042000", "135924.045000", "135924.048000", "135924.051000", "135924.053000", "135924.056000", "135940.679000", "135940.682000", "135940.686000", "135940.689000", "135940.692000", "135940.695000", "135940.698000", "135940.700000", "135940.703000"],
      "InstanceCreationTime": ["135523.985000", "135523.989000", "135523.992000", "135523.995000", "135523.998000", "135524.002000", "135524.004000", "135524.007000", "135524.010000", "135524.012000", "135524.015000", "135524.018000", "135524.021000", "135524.024000", "135524.027000", "135524.029000", "135524.032000", "135524.035000", "135524.038000", "135524.041000", "135524.044000", "135524.047000", "135524.050000", "135524.052000", "135524.059000", "135524.062000", "135603.977000", "135603.981000", "135603.984000", "135603.987000", "135603.990000", "135603.993000", "135603.995000", "135604.000000", "135604.003000", "135604.005000", "135604.008000", "135604.011000", "135604.014000", "135604.017000", "135604.019000", "135604.022000", "135604.025000", "135604.028000", "135604.031000", "135604.034000", "135643.978000", "135643.981000", "135643.984000", "135643.987000", "135643.989000", "135643.992000", "135643.995000", "135644.000000", "135644.002000", "135644.005000", "135644.008000", "135644.011000", "135644.014000", "135644.017000", "135644.020000", "135644.023000", "135644.025000", "135644.028000", "135644.031000", "135644.034000", "135723.978000", "135723.981000", "135723.984000", "135723.987000", "135723.990000", "135723.993000", "135723.996000", "135724.000000", "135724.003000", "135724.005000", "135724.008000", "135724.011000", "135724.014000", "135724.017000", "135724.020000", "135724.022000", "135724.025000", "135724.028000", "135724.030000", "135724.033000", "135803.979000", "135803.982000", "135803.985000", "135803.988000", "135803.991000", "135803.994000", "135803.997000", "135804.001000", "135804.004000", "135804.007000", "135804.010000", "135804.012000", "135804.015000", "135804.018000", "135804.021000", "135804.024000", "135804.026000", "135804.029000", "135804.032000", "135804.034000", "135843.978000", "135843.982000", "135843.985000", "135843.988000", "135843.990000", "135843.993000", "135843.996000", "135844.011000", "135844.013000", "135844.017000", "135844.019000", "135844.022000", "135844.025000", "135844.028000", "135844.031000", "135844.034000", "135844.036000", "135844.039000", "135844.042000", "135844.045000", "135923.979000", "135923.988000", "135923.991000", "135923.994000", "135923.997000", "135924.004000", "135924.013000", "135924.017000", "135924.020000", "135924.028000", "135924.031000", "135924.034000", "135924.037000", "135924.039000", "135924.042000", "135924.045000", "135924.048000", "135924.051000", "135924.053000", "135924.056000", "135940.679000", "135940.682000", "135940.686000", "135940.689000", "135940.692000", "135940.695000", "135940.698000", "135940.700000", "135940.703000"],
      "InstanceNumber": [1, 2, 3, 4, 5, 6, 7, 8, 9, 10, 11, 12, 13, 14, 15, 16, 17, 18, 19, 20, 21, 22, 23, 24, 25, 26, 27, 28, 29, 30, 31, 32, 33, 34, 35, 36, 37, 38, 39, 40, 41, 42, 43, 44, 45, 46, 47, 48, 49, 50, 51, 52, 53, 54, 55, 56, 57, 58, 59, 60, 61, 62, 63, 64, 65, 66, 67, 68, 69, 70, 71, 72, 73, 74, 75, 76, 77, 78, 79, 80, 81, 82, 83, 84, 85, 86, 87, 88, 89, 90, 91, 92, 93, 94, 95, 96, 97, 98, 99, 100, 101, 102, 103, 104, 105, 106, 107, 108, 109, 110, 111, 112, 113, 114, 115, 116, 117, 118, 119, 120, 121, 122, 123, 124, 125, 126, 127, 128, 129, 130, 131, 132, 133, 134, 135, 136, 137, 138, 139, 140, 141, 142, 143, 144, 145, 146, 147, 148, 149, 150, 151, 152, 153, 154, 155],
      "LargestImagePixelValue": [803, 957, 885, 867, 803, 746, 785, 883, 885, 843, 796, 803, 765, 811, 864, 896, 890, 817, 863, 926, 872, 1103, 824, 929, 1025, 759, 828, 845, 851, 947, 790, 841, 818, 865, 968, 735, 773, 804, 958, 768, 893, 855, 967, 819, 792, 884, 905, 783, 735, 760, 836, 918, 903, 748, 782, 956, 757, 871, 803, 791, 962, 769, 880, 756, 935, 827, 796, 898, 881, 800, 756, 805, 810, 840, 817, 849, 801, 822, 746, 774, 885, 806, 758, 909, 889, 749, 801, 916, 727, 894, 726, 889, 801, 848, 755, 995, 1009, 757, 874, 752, 924, 844, 759, 1010, 765, 833, 811, 777, 1002, 742, 813, 806, 742, 877, 961, 770, 781, 836, 726, 837, 775, 713, 731, 788, 843, 772, 1107, 819, 759, 787, 956, 748, 743, 869, 756, 742, 778, 791, 796, 745, 871, 861, 788, 745, 784, 856, 830, 769, 750, 761, 773, 804, 834, 787, 786],
      "WindowCenter": [422.0, 422.0, 421.0, 421.0, 420.0, 420.0, 421.0, 421.0, 422.0, 421.0, 420.0, 420.0, 420.0, 422.0, 422.0, 421.0, 422.0, 421.0, 420.0, 421.0, 422.0, 423.0, 420.0, 421.0, 421.0, 419.0, 420.0, 420.0, 421.0, 422.0, 422.0, 421.0, 421.0, 422.0, 424.0, 421.0, 420.0, 422.0, 422.0, 420.0, 420.0, 420.0, 421.0, 421.0, 421.0, 422.0, 421.0, 419.0, 419.0, 421.0, 421.0, 421.0, 420.0, 419.0, 421.0, 423.0, 420.0, 422.0, 421.0, 421.0, 422.0, 420.0, 420.0, 419.0, 420.0, 419.0, 418.0, 420.0, 420.0, 419.0, 419.0, 420.0, 420.0, 420.0, 420.0, 421.0, 421.0, 421.0, 421.0, 422.0, 422.0, 421.0, 421.0, 422.0, 422.0, 421.0, 422.0, 423.0, 420.0, 423.0, 422.0, 423.0, 421.0, 421.0, 420.0, 421.0, 421.0, 418.0, 419.0, 419.0, 420.0, 419.0, 418.0, 419.0, 417.0, 418.0, 418.0, 418.0, 419.0, 416.0, 417.0, 418.0, 418.0, 419.0, 419.0, 418.0, 418.0, 419.0, 418.0, 420.0, 419.0, 420.0, 423.0, 423.0, 422.0, 419.0, 421.0, 419.0, 418.0, 417.0, 419.0, 417.0, 417.0, 418.0, 417.0, 418.0, 419.0, 418.0, 417.0, 418.0, 419.0, 419.0, 418.0, 418.0, 419.0, 420.0, 419.0, 419.0, 419.0, 420.0, 419.0, 420.0, 421.0, 421.0, 420.0],
      "WindowWidth": [891.0, 889.0, 887.0, 887.0, 886.0, 887.0, 888.0, 889.0, 890.0, 889.0, 887.0, 886.0, 887.0, 889.0, 890.0, 888.0, 890.0, 888.0, 887.0, 889.0, 890.0, 891.0, 886.0, 887.0, 888.0, 886.0, 887.0, 887.0, 888.0, 889.0, 890.0, 889.0, 887.0, 889.0, 893.0, 890.0, 887.0, 889.0, 890.0, 886.0, 886.0, 885.0, 888.0, 888.0, 888.0, 889.0, 888.0, 886.0, 886.0, 888.0, 889.0, 888.0, 887.0, 886.0, 888.0, 890.0, 887.0, 890.0, 888.0, 888.0, 889.0, 887.0, 887.0, 884.0, 886.0, 885.0, 883.0, 885.0, 886.0, 884.0, 884.0, 886.0, 886.0, 886.0, 886.0, 887.0, 887.0, 889.0, 888.0, 889.0, 890.0, 888.0, 888.0, 889.0, 889.0, 888.0, 889.0, 891.0, 887.0, 891.0, 890.0, 891.0, 888.0, 888.0, 887.0, 888.0, 887.0, 883.0, 884.0, 884.0, 886.0, 884.0, 883.0, 884.0, 881.0, 883.0, 883.0, 882.0, 884.0, 880.0, 880.0, 882.0, 883.0, 884.0, 883.0, 882.0, 883.0, 885.0, 884.0, 886.0, 884.0, 887.0, 893.0, 893.0, 889.0, 885.0, 888.0, 884.0, 883.0, 882.0, 884.0, 882.0, 881.0, 883.0, 881.0, 883.0, 884.0, 883.0, 881.0, 883.0, 885.0, 885.0, 883.0, 883.0, 884.0, 886.0, 885.0, 884.0, 885.0, 886.0, 885.0, 885.0, 887.0, 888.0, 887.0]
    },
    "slices": {}
  }
}