{
  "AcquisitionMatrixPE": 64,
  "AcquisitionNumber": 1,
  "AcquisitionTime": "12:18:51.730000",
  "BandwidthPerPixelPhaseEncode": 40.064,
  "BaseResolution": 64,
  "BodyPartExamined": "BRAIN",
  "ConsistencyInfo": "N4_VD13D_LATEST_20130810",
  "ConversionSoftware": "dcm2niix",
  "ConversionSoftwareVersion": "v1.0.20191031",
  "DerivedVendorReportedEchoSpacing": 0.000780002,
  "DeviceSerialNumber": "67007",
  "DwellTime": 5.3e-06,
  "EchoTime": 0.03,
  "EchoTrainLength": 31,
  "EffectiveEchoSpacing": 0.000390001,
  "FlipAngle": 75,
  "ImageOrientationPatientDICOM": [0.999163, 0.0403891, -0.00647688, -0.0401305, 0.998545, 0.0360291],
  "ImageType": [
    "ORIGINAL",
    "PRIMARY",
    "M",
    "ND",
    "NORM",
    "MOSAIC"
],
  "ImagingFrequency": 123.211,
  "InPlanePhaseEncodingDirectionDICOM": "ROW",
  "InstitutionAddress": "Perth_Drive_100_London_Ontario_CA_N6A_5K8",
  "InstitutionName": "Robarts-CFMM",
  "InstitutionalDepartmentName": "CFMM",
  "MRAcquisitionType": "2D",
  "MagneticFieldStrength": 3,
  "Manufacturer": "Siemens",
  "ManufacturersModelName": "Prisma_fit",
  "Modality": "MR",
  "ParallelReductionFactorInPlane": 2,
  "PartialFourier": 1,
  "PatientPosition": "HFS",
  "PercentPhaseFOV": 100,
  "PhaseEncodingDirection": "i",
  "PhaseEncodingSteps": 63,
  "PhaseResolution": 1,
  "PixelBandwidth": 1475,
  "ProcedureStepDescription": "Owen_Naci",
  "ProtocolName": "Resting_State",
  "PulseSequenceDetails": "%SiemensSeq%_ep2d_bold",
  "ReceiveCoilActiveElements": "HEA;HEP",
  "ReceiveCoilName": "Head_32",
  "ReconMatrixPE": 64,
  "RefLinesPE": 24,
  "RepetitionTime": 2,
  "SAR": 0.121412,
  "ScanOptions": "FS",
  "ScanningSequence": "EP",
  "SequenceName": "_epfid2d1_64",
  "SequenceVariant": "SK",
  "SeriesDescription": "Resting_State",
  "SeriesNumber": 5,
  "ShimSetting": [5234, -6081, -3885, 371, -4, 186, 75, -1],
  "SliceThickness": 3,
  "SliceTiming": [1.9175, 1.8575, 1.7975, 1.7375, 1.6775, 1.6175, 1.5575, 1.4975, 1.4375, 1.3775, 1.3175, 1.2575, 1.1975, 1.1375, 1.0775, 1.02, 0.96, 0.9, 0.84, 0.78, 0.72, 0.66, 0.6, 0.54, 0.48, 0.42, 0.36, 0.3, 0.24, 0.18, 0.12, 0.06, 0],
  "SoftwareVersions": "syngo_MR_D13D",
  "SpacingBetweenSlices": 3.75,
  "StationName": "AWP67007",
  "TaskName": "rest",
  "TotalReadoutTime": 0.0245701,
  "TxRefAmp": 268.999,
  "dcmmeta_affine": [
    [-2.9974892139434814, -0.1203915998339653, -0.02970988303422928, 101.68151092529297],
    [-0.12116724252700806, 2.995634078979492, 0.1340213268995285, -70.62848663330078],
    [-0.01943063735961914, -0.10808729380369186, 3.7474865913391113, -21.562219619750977],
    [0.0, 0.0, 0.0, 1.0]
],
  "dcmmeta_reorient_transform": [
    [0.0, -1.0, 0.0, 63.0],
    [1.0, 0.0, 0.0, 0.0],
    [0.0, 0.0, 1.0, 0.0],
    [0.0, 0.0, 0.0, 1.0]
],
  "dcmmeta_shape": [64, 64, 33, 256],
  "dcmmeta_slice_dim": 2,
  "dcmmeta_version": 0.6,
  "global": {
    "const": {
      "AcquisitionMatrix": [0, 64, 64, 0],
      "AngioFlag": "N",
      "BitsAllocated": 16,
      "BitsStored": 12,
      "BodyPartExamined": "BRAIN",
      "Columns": 384,
      "EchoNumbers": 1,
      "EchoTime": 30.0,
      "EchoTrainLength": 31,
      "FlipAngle": 75.0,
      "HighBit": 11,
      "ImageOrientationPatient": [0.99916303583197, 0.04038908097244, -0.0064768792826, -0.0401305329621, 0.99854466323311, 0.03602909730837],
      "ImagePositionPatient": [-554.43244362836, -616.7846509019, -42.556783698562],
      "ImageType": [
        "ORIGINAL",
        "PRIMARY",
        "M",
        "ND",
        "NORM",
        "MOSAIC"
],
      "ImagedNucleus": "1H",
      "ImagingFrequency": 123.211113,
      "InPlanePhaseEncodingDirection": "ROW",
      "MRAcquisitionType": "2D",
      "MagneticFieldStrength": 3.0,
      "Manufacturer": "SIEMENS",
      "ManufacturerModelName": "Prisma_fit",
      "Modality": "MR",
      "NumberOfAverages": 1.0,
      "NumberOfPhaseEncodingSteps": 63,
      "PercentPhaseFieldOfView": 100.0,
      "PercentSampling": 100.0,
      "PerformedProcedureStepStartTime": "120140.640000",
      "PhotometricInterpretation": "MONOCHROME2",
      "PixelBandwidth": 1475.0,
      "PixelRepresentation": 0,
      "PixelSpacing": [3.0, 3.0],
      "ProtocolName": "Resting State",
      "RepetitionTime": 2000.0,
      "Rows": 384,
      "SAR": 0.12141194966242,
      "SamplesPerPixel": 1,
      "ScanOptions": "FS",
      "ScanningSequence": "EP",
      "SequenceName": "*epfid2d1_64",
      "SequenceVariant": "SK",
      "SeriesDescription": "Resting State",
      "SeriesNumber": 5,
      "SeriesTime": "121943.980000",
      "SliceLocation": -24.877546230105,
      "SliceThickness": 3.0,
      "SmallestImagePixelValue": 0,
      "SoftwareVersions": "syngo MR D13D",
      "SpacingBetweenSlices": 3.7500000199299,
      "SpecificCharacterSet": "ISO_IR 100",
      "StudyID": "1",
      "StudyTime": "120140.594000",
      "TimeOfLastCalibration": ["123723.000000", "123723.000000"],
      "TransmitCoilName": "Body",
      "VariableFlipAngleFlag": "N",
      "WindowCenterWidthExplanation": "Algo1",
      "dBdt": 0.0},
    "slices": {}
  },
  "time": {
    "samples": {
      "AcquisitionNumber": [1, 2, 3, 4, 5, 6, 7, 8, 9, 10, 11, 12, 13, 14, 15, 16, 17, 18, 19, 20, 21, 22, 23, 24, 25, 26, 27, 28, 29, 30, 31, 32, 33, 34, 35, 36, 37, 38, 39, 40, 41, 42, 43, 44, 45, 46, 47, 48, 49, 50, 51, 52, 53, 54, 55, 56, 57, 58, 59, 60, 61, 62, 63, 64, 65, 66, 67, 68, 69, 70, 71, 72, 73, 74, 75, 76, 77, 78, 79, 80, 81, 82, 83, 84, 85, 86, 87, 88, 89, 90, 91, 92, 93, 94, 95, 96, 97, 98, 99, 100, 101, 102, 103, 104, 105, 106, 107, 108, 109, 110, 111, 112, 113, 114, 115, 116, 117, 118, 119, 120, 121, 122, 123, 124, 125, 126, 127, 128, 129, 130, 131, 132, 133, 134, 135, 136, 137, 138, 139, 140, 141, 142, 143, 144, 145, 146, 147, 148, 149, 150, 151, 152, 153, 154, 155, 156, 157, 158, 159, 160, 161, 162, 163, 164, 165, 166, 167, 168, 169, 170, 171, 172, 173, 174, 175, 176, 177, 178, 179, 180, 181, 182, 183, 184, 185, 186, 187, 188, 189, 190, 191, 192, 193, 194, 195, 196, 197, 198, 199, 200, 201, 202, 203, 204, 205, 206, 207, 208, 209, 210, 211, 212, 213, 214, 215, 216, 217, 218, 219, 220, 221, 222, 223, 224, 225, 226, 227, 228, 229, 230, 231, 232, 233, 234, 235, 236, 237, 238, 239, 240, 241, 242, 243, 244, 245, 246, 247, 248, 249, 250, 251, 252, 253, 254, 255, 256],
      "AcquisitionTime": ["121851.730000", "121853.730000", "121855.730000", "121857.730000", "121859.730000", "121901.730000", "121903.730000", "121905.730000", "121907.730000", "121909.730000", "121911.730000", "121913.730000", "121915.730000", "121917.730000", "121919.730000", "121921.732500", "121923.732500", "121925.732500", "121927.732500", "121929.732500", "121931.732500", "121933.732500", "121935.732500", "121937.732500", "121939.732500", "121941.732500", "121943.732500", "121945.732500", "121947.732500", "121949.732500", "121951.732500", "121953.732500", "121955.732500", "121957.732500", "121959.732500", "122001.732500", "122003.732500", "122005.732500", "122007.732500", "122009.732500", "122011.732500", "122013.732500", "122015.732500", "122017.732500", "122019.732500", "122021.732500", "122023.732500", "122025.732500", "122027.732500", "122029.732500", "122031.732500", "122033.732500", "122035.732500", "122037.732500", "122039.732500", "122041.732500", "122043.732500", "122045.732500", "122047.732500", "122049.732500", "122051.732500", "122053.732500", "122055.732500", "122057.732500", "122059.732500", "122101.732500", "122103.732500", "122105.732500", "122107.732500", "122109.732500", "122111.732500", "122113.732500", "122115.732500", "122117.732500", "122119.732500", "122121.732500", "122123.732500", "122125.732500", "122127.732500", "122129.732500", "122131.732500", "122133.732500", "122135.732500", "122137.732500", "122139.732500", "122141.732500", "122143.732500", "122145.732500", "122147.732500", "122149.732500", "122151.732500", "122153.732500", "122155.732500", "122157.732500", "122159.732500", "122201.732500", "122203.732500", "122205.732500", "122207.732500", "122209.732500", "122211.732500", "122213.732500", "122215.732500", "122217.732500", "122219.732500", "122221.732500", "122223.732500", "122225.732500", "122227.732500", "122229.732500", "122231.732500", "122233.732500", "122235.732500", "122237.732500", "122239.732500", "122241.732500", "122243.732500", "122245.732500", "122247.732500", "122249.732500", "122251.732500", "122253.732500", "122255.732500", "122257.732500", "122259.732500", "122301.732500", "122303.732500", "122305.732500", "122307.732500", "122309.732500", "122311.732500", "122313.732500", "122315.732500", "122317.732500", "122319.732500", "122321.732500", "122323.732500", "122325.732500", "122327.732500", "122329.732500", "122331.732500", "122333.732500", "122335.732500", "122337.732500", "122339.732500", "122341.732500", "122343.732500", "122345.732500", "122347.732500", "122349.732500", "122351.732500", "122353.732500", "122355.732500", "122357.732500", "122359.732500", "122401.732500", "122403.732500", "122405.732500", "122407.732500", "122409.732500", "122411.732500", "122413.732500", "122415.732500", "122417.732500", "122419.732500", "122421.732500", "122423.732500", "122425.732500", "122427.732500", "122429.732500", "122431.732500", "122433.732500", "122435.732500", "122437.732500", "122439.732500", "122441.732500", "122443.732500", "122445.732500", "122447.732500", "122449.732500", "122451.732500", "122453.732500", "122455.732500", "122457.732500", "122459.732500", "122501.732500", "122503.732500", "122505.732500", "122507.732500", "122509.732500", "122511.732500", "122513.732500", "122515.732500", "122517.732500", "122519.732500", "122521.732500", "122523.732500", "122525.732500", "122527.732500", "122529.732500", "122531.732500", "122533.732500", "122535.732500", "122537.732500", "122539.732500", "122541.732500", "122543.732500", "122545.732500", "122547.732500", "122549.732500", "122551.732500", "122553.732500", "122555.732500", "122557.732500", "122559.732500", "122601.732500", "122603.732500", "122605.732500", "122607.732500", "122609.732500", "122611.732500", "122613.732500", "122615.732500", "122617.732500", "122619.732500", "122621.732500", "122623.732500", "122625.732500", "122627.732500", "122629.732500", "122631.732500", "122633.732500", "122635.732500", "122637.732500", "122639.732500", "122641.732500", "122643.732500", "122645.732500", "122647.732500", "122649.732500", "122651.732500", "122653.732500", "122655.732500", "122657.732500", "122659.732500", "122701.732500", "122703.732500", "122705.732500", "122707.732500", "122709.732500", "122711.732500", "122713.732500", "122715.732500", "122717.732500", "122719.732500", "122721.732500"],
      "ContentTime": ["121943.984000", "121943.988000", "121943.991000", "121943.993000", "121943.996000", "121944.000000", "121944.003000", "121944.005000", "121944.008000", "121944.011000", "121944.014000", "121944.017000", "121944.019000", "121944.022000", "121944.025000", "121944.028000", "121944.031000", "121944.034000", "121944.037000", "121944.039000", "121944.042000", "121944.045000", "121944.048000", "121944.051000", "121944.053000", "122023.978000", "122023.981000", "122023.984000", "122023.987000", "122023.990000", "122023.993000", "122023.995000", "122023.998000", "122024.002000", "122024.005000", "122024.008000", "122024.011000", "122024.014000", "122024.016000", "122024.019000", "122024.022000", "122024.025000", "122024.028000", "122024.031000", "122024.034000", "122103.978000", "122103.982000", "122103.984000", "122103.987000", "122103.990000", "122103.993000", "122103.996000", "122103.998000", "122104.001000", "122104.004000", "122104.007000", "122104.010000", "122104.013000", "122104.016000", "122104.019000", "122104.021000", "122104.024000", "122104.027000", "122104.030000", "122104.033000", "122143.978000", "122143.981000", "122143.984000", "122143.987000", "122143.990000", "122143.993000", "122143.995000", "122143.998000", "122144.002000", "122144.005000", "122144.008000", "122144.011000", "122144.014000", "122144.017000", "122144.020000", "122144.022000", "122144.025000", "122144.028000", "122144.031000", "122144.033000", "122223.978000", "122223.982000", "122223.985000", "122223.988000", "122223.990000", "122223.993000", "122223.996000", "122224.000000", "122224.003000", "122224.006000", "122224.009000", "122224.012000", "122224.015000", "122224.017000", "122224.020000", "122224.023000", "122224.026000", "122224.029000", "122224.032000", "122224.035000", "122303.979000", "122303.982000", "122303.985000", "122303.987000", "122303.990000", "122303.993000", "122303.996000", "122303.999000", "122304.002000", "122304.005000", "122304.008000", "122304.010000", "122304.013000", "122304.016000", "122304.019000", "122304.022000", "122304.025000", "122304.028000", "122304.030000", "122304.033000", "122323.978000", "122323.981000", "122323.984000", "122323.987000", "122323.990000", "122323.992000", "122323.995000", "122323.998000", "122324.002000", "122324.005000", "122403.978000", "122403.981000", "122403.984000", "122403.987000", "122403.990000", "122403.993000", "122403.996000", "122404.000000", "122404.002000", "122404.006000", "122404.008000", "122404.011000", "122404.014000", "122404.017000", "122404.019000", "122404.022000", "122404.025000", "122404.028000", "122404.031000", "122404.034000", "122443.978000", "122443.982000", "122443.984000", "122443.987000", "122443.990000", "122443.993000", "122443.996000", "122443.998000", "122444.002000", "122444.005000", "122444.008000", "122444.011000", "122444.020000", "122444.023000", "122444.025000", "122444.028000", "122444.031000", "122444.035000", "122444.037000", "122444.040000", "122523.979000", "122523.982000", "122523.985000", "122523.988000", "122523.991000", "122523.994000", "122523.996000", "122524.001000", "122524.004000", "122524.006000", "122524.009000", "122524.012000", "122524.015000", "122524.018000", "122524.021000", "122524.024000", "122524.026000", "122524.029000", "122524.032000", "122524.035000", "122603.978000", "122603.981000", "122603.984000", "122603.987000", "122603.990000", "122603.993000", "122603.996000", "122604.000000", "122604.003000", "122604.005000", "122604.020000", "122604.023000", "122604.026000", "122604.028000", "122604.031000", "122604.034000", "122604.037000", "122604.040000", "122604.043000", "122604.045000", "122643.977000", "122643.980000", "122643.983000", "122643.986000", "122643.989000", "122643.992000", "122643.995000", "122643.998000", "122644.001000", "122644.004000", "122644.007000", "122644.010000", "122644.013000", "122644.016000", "122644.019000", "122644.022000", "122644.025000", "122644.027000", "122644.030000", "122644.033000", "122723.978000", "122723.981000", "122723.984000", "122723.987000", "122723.990000", "122723.993000", "122723.995000", "122723.998000", "122724.002000", "122724.005000", "122724.008000", "122724.010000", "122724.013000", "122724.016000", "122724.019000", "122724.022000", "122724.025000", "122724.028000", "122724.031000", "122724.033000", "122725.325000"],
      "InstanceCreationTime": ["121943.984000", "121943.988000", "121943.991000", "121943.993000", "121943.996000", "121944.000000", "121944.003000", "121944.005000", "121944.008000", "121944.011000", "121944.014000", "121944.017000", "121944.019000", "121944.022000", "121944.025000", "121944.028000", "121944.031000", "121944.034000", "121944.037000", "121944.039000", "121944.042000", "121944.045000", "121944.048000", "121944.051000", "121944.053000", "122023.978000", "122023.981000", "122023.984000", "122023.987000", "122023.990000", "122023.993000", "122023.995000", "122023.998000", "122024.002000", "122024.005000", "122024.008000", "122024.011000", "122024.014000", "122024.016000", "122024.019000", "122024.022000", "122024.025000", "122024.028000", "122024.031000", "122024.034000", "122103.978000", "122103.982000", "122103.984000", "122103.987000", "122103.990000", "122103.993000", "122103.996000", "122103.998000", "122104.001000", "122104.004000", "122104.007000", "122104.010000", "122104.013000", "122104.016000", "122104.019000", "122104.021000", "122104.024000", "122104.027000", "122104.030000", "122104.033000", "122143.978000", "122143.981000", "122143.984000", "122143.987000", "122143.990000", "122143.993000", "122143.995000", "122143.998000", "122144.002000", "122144.005000", "122144.008000", "122144.011000", "122144.014000", "122144.017000", "122144.020000", "122144.022000", "122144.025000", "122144.028000", "122144.031000", "122144.033000", "122223.978000", "122223.982000", "122223.985000", "122223.988000", "122223.990000", "122223.993000", "122223.996000", "122224.000000", "122224.003000", "122224.006000", "122224.009000", "122224.012000", "122224.015000", "122224.017000", "122224.020000", "122224.023000", "122224.026000", "122224.029000", "122224.032000", "122224.035000", "122303.979000", "122303.982000", "122303.985000", "122303.987000", "122303.990000", "122303.993000", "122303.996000", "122303.999000", "122304.002000", "122304.005000", "122304.008000", "122304.010000", "122304.013000", "122304.016000", "122304.019000", "122304.022000", "122304.025000", "122304.028000", "122304.030000", "122304.033000", "122323.978000", "122323.981000", "122323.984000", "122323.987000", "122323.990000", "122323.992000", "122323.995000", "122323.998000", "122324.002000", "122324.005000", "122403.978000", "122403.981000", "122403.984000", "122403.987000", "122403.990000", "122403.993000", "122403.996000", "122404.000000", "122404.002000", "122404.006000", "122404.008000", "122404.011000", "122404.014000", "122404.017000", "122404.019000", "122404.022000", "122404.025000", "122404.028000", "122404.031000", "122404.034000", "122443.978000", "122443.982000", "122443.984000", "122443.987000", "122443.990000", "122443.993000", "122443.996000", "122443.998000", "122444.002000", "122444.005000", "122444.008000", "122444.011000", "122444.020000", "122444.023000", "122444.025000", "122444.028000", "122444.031000", "122444.035000", "122444.037000", "122444.040000", "122523.979000", "122523.982000", "122523.985000", "122523.988000", "122523.991000", "122523.994000", "122523.996000", "122524.001000", "122524.004000", "122524.006000", "122524.009000", "122524.012000", "122524.015000", "122524.018000", "122524.021000", "122524.024000", "122524.026000", "122524.029000", "122524.032000", "122524.035000", "122603.978000", "122603.981000", "122603.984000", "122603.987000", "122603.990000", "122603.993000", "122603.996000", "122604.000000", "122604.003000", "122604.005000", "122604.020000", "122604.023000", "122604.026000", "122604.028000", "122604.031000", "122604.034000", "122604.037000", "122604.040000", "122604.043000", "122604.045000", "122643.977000", "122643.980000", "122643.983000", "122643.986000", "122643.989000", "122643.992000", "122643.995000", "122643.998000", "122644.001000", "122644.004000", "122644.007000", "122644.010000", "122644.013000", "122644.016000", "122644.019000", "122644.022000", "122644.025000", "122644.027000", "122644.030000", "122644.033000", "122723.978000", "122723.981000", "122723.984000", "122723.987000", "122723.990000", "122723.993000", "122723.995000", "122723.998000", "122724.002000", "122724.005000", "122724.008000", "122724.010000", "122724.013000", "122724.016000", "122724.019000", "122724.022000", "122724.025000", "122724.028000", "122724.031000", "122724.033000", "122725.325000"],
      "InstanceNumber": [1, 2, 3, 4, 5, 6, 7, 8, 9, 10, 11, 12, 13, 14, 15, 16, 17, 18, 19, 20, 21, 22, 23, 24, 25, 26, 27, 28, 29, 30, 31, 32, 33, 34, 35, 36, 37, 38, 39, 40, 41, 42, 43, 44, 45, 46, 47, 48, 49, 50, 51, 52, 53, 54, 55, 56, 57, 58, 59, 60, 61, 62, 63, 64, 65, 66, 67, 68, 69, 70, 71, 72, 73, 74, 75, 76, 77, 78, 79, 80, 81, 82, 83, 84, 85, 86, 87, 88, 89, 90, 91, 92, 93, 94, 95, 96, 97, 98, 99, 100, 101, 102, 103, 104, 105, 106, 107, 108, 109, 110, 111, 112, 113, 114, 115, 116, 117, 118, 119, 120, 121, 122, 123, 124, 125, 126, 127, 128, 129, 130, 131, 132, 133, 134, 135, 136, 137, 138, 139, 140, 141, 142, 143, 144, 145, 146, 147, 148, 149, 150, 151, 152, 153, 154, 155, 156, 157, 158, 159, 160, 161, 162, 163, 164, 165, 166, 167, 168, 169, 170, 171, 172, 173, 174, 175, 176, 177, 178, 179, 180, 181, 182, 183, 184, 185, 186, 187, 188, 189, 190, 191, 192, 193, 194, 195, 196, 197, 198, 199, 200, 201, 202, 203, 204, 205, 206, 207, 208, 209, 210, 211, 212, 213, 214, 215, 216, 217, 218, 219, 220, 221, 222, 223, 224, 225, 226, 227, 228, 229, 230, 231, 232, 233, 234, 235, 236, 237, 238, 239, 240, 241, 242, 243, 244, 245, 246, 247, 248, 249, 250, 251, 252, 253, 254, 255, 256],
      "LargestImagePixelValue": [975, 957, 807, 892, 831, 843, 822, 769, 855, 824, 778, 894, 775, 944, 760, 917, 776, 800, 895, 782, 925, 799, 1002, 778, 972, 799, 803, 919, 773, 806, 777, 858, 764, 886, 812, 936, 1049, 770, 778, 808, 1041, 820, 905, 880, 818, 838, 831, 852, 830, 871, 830, 916, 849, 876, 760, 900, 770, 932, 768, 923, 735, 878, 837, 912, 848, 773, 850, 1018, 826, 796, 806, 795, 917, 817, 869, 882, 876, 1126, 820, 817, 894, 776, 799, 793, 837, 951, 802, 891, 870, 730, 799, 873, 752, 773, 830, 816, 789, 772, 761, 898, 939, 874, 931, 780, 1101, 804, 889, 825, 836, 813, 847, 811, 888, 854, 865, 811, 938, 806, 918, 798, 880, 826, 903, 943, 796, 894, 860, 925, 766, 1026, 764, 1026, 788, 878, 796, 909, 770, 835, 867, 892, 923, 766, 994, 772, 759, 1017, 778, 1067, 800, 826, 817, 833, 1099, 800, 847, 785, 845, 972, 1152, 827, 832, 924, 795, 932, 772, 938, 841, 912, 863, 762, 857, 801, 783, 851, 846, 932, 975, 808, 779, 807, 822, 894, 970, 826, 819, 837, 828, 933, 1013, 839, 814, 1072, 799, 845, 898, 833, 759, 862, 910, 904, 743, 846, 794, 808, 921, 843, 738, 767, 802, 1106, 890, 847, 916, 829, 847, 908, 770, 887, 877, 741, 835, 814, 873, 908, 835, 874, 989, 813, 1039, 799, 861, 861, 778, 885, 963, 800, 785, 894, 932, 790, 775, 771, 853, 877, 890, 786, 745, 839, 1031, 785, 763, 906, 746, 915, 743, 772],
      "WindowCenter": [423.0, 422.0, 419.0, 420.0, 419.0, 419.0, 420.0, 420.0, 421.0, 421.0, 420.0, 421.0, 420.0, 421.0, 420.0, 422.0, 420.0, 420.0, 422.0, 421.0, 422.0, 420.0, 422.0, 420.0, 423.0, 421.0, 420.0, 421.0, 421.0, 422.0, 422.0, 423.0, 422.0, 424.0, 423.0, 423.0, 423.0, 420.0, 421.0, 423.0, 425.0, 421.0, 421.0, 420.0, 419.0, 421.0, 422.0, 422.0, 421.0, 421.0, 421.0, 421.0, 420.0, 420.0, 420.0, 421.0, 420.0, 422.0, 420.0, 421.0, 421.0, 421.0, 421.0, 421.0, 420.0, 421.0, 421.0, 423.0, 421.0, 421.0, 421.0, 422.0, 422.0, 421.0, 422.0, 422.0, 421.0, 422.0, 419.0, 421.0, 422.0, 421.0, 420.0, 421.0, 422.0, 423.0, 420.0, 420.0, 420.0, 419.0, 421.0, 422.0, 421.0, 423.0, 423.0, 422.0, 422.0, 423.0, 423.0, 425.0, 424.0, 422.0, 423.0, 423.0, 424.0, 420.0, 420.0, 419.0, 422.0, 422.0, 422.0, 422.0, 422.0, 422.0, 421.0, 421.0, 422.0, 421.0, 422.0, 420.0, 422.0, 422.0, 422.0, 421.0, 420.0, 421.0, 421.0, 421.0, 421.0, 424.0, 421.0, 423.0, 420.0, 421.0, 421.0, 422.0, 422.0, 423.0, 422.0, 422.0, 422.0, 421.0, 423.0, 421.0, 421.0, 423.0, 421.0, 423.0, 420.0, 421.0, 422.0, 422.0, 424.0, 421.0, 422.0, 424.0, 425.0, 425.0, 424.0, 420.0, 421.0, 422.0, 421.0, 422.0, 422.0, 423.0, 421.0, 421.0, 421.0, 421.0, 421.0, 421.0, 422.0, 424.0, 423.0, 422.0, 421.0, 420.0, 422.0, 423.0, 424.0, 423.0, 424.0, 421.0, 422.0, 423.0, 422.0, 422.0, 422.0, 421.0, 421.0, 423.0, 420.0, 420.0, 420.0, 421.0, 423.0, 423.0, 422.0, 421.0, 421.0, 422.0, 422.0, 423.0, 423.0, 421.0, 421.0, 423.0, 424.0, 425.0, 421.0, 419.0, 420.0, 420.0, 420.0, 422.0, 420.0, 420.0, 420.0, 419.0, 422.0, 422.0, 422.0, 422.0, 422.0, 422.0, 423.0, 421.0, 422.0, 421.0, 422.0, 422.0, 421.0, 421.0, 421.0, 420.0, 420.0, 421.0, 422.0, 421.0, 420.0, 420.0, 421.0, 421.0, 422.0, 420.0, 420.0, 421.0, 422.0, 420.0, 419.0, 421.0, 421.0, 422.0, 421.0, 422.0],
      "WindowWidth": [893.0, 889.0, 884.0, 887.0, 885.0, 885.0, 886.0, 887.0, 889.0, 888.0, 887.0, 888.0, 886.0, 888.0, 886.0, 889.0, 887.0, 887.0, 890.0, 888.0, 890.0, 887.0, 889.0, 887.0, 891.0, 888.0, 887.0, 888.0, 888.0, 890.0, 890.0, 892.0, 890.0, 893.0, 891.0, 891.0, 891.0, 887.0, 889.0, 892.0, 894.0, 889.0, 887.0, 886.0, 886.0, 888.0, 889.0, 889.0, 888.0, 887.0, 888.0, 888.0, 886.0, 886.0, 886.0, 888.0, 888.0, 890.0, 888.0, 889.0, 888.0, 889.0, 888.0, 887.0, 886.0, 887.0, 888.0, 890.0, 888.0, 888.0, 889.0, 890.0, 890.0, 887.0, 889.0, 889.0, 889.0, 890.0, 886.0, 888.0, 889.0, 889.0, 887.0, 888.0, 890.0, 891.0, 887.0, 887.0, 886.0, 885.0, 887.0, 889.0, 888.0, 891.0, 892.0, 891.0, 890.0, 892.0, 893.0, 894.0, 893.0, 889.0, 891.0, 891.0, 893.0, 887.0, 886.0, 885.0, 889.0, 890.0, 889.0, 890.0, 890.0, 890.0, 888.0, 888.0, 890.0, 889.0, 890.0, 887.0, 891.0, 890.0, 890.0, 889.0, 887.0, 888.0, 888.0, 888.0, 889.0, 893.0, 889.0, 890.0, 887.0, 888.0, 888.0, 890.0, 890.0, 891.0, 891.0, 889.0, 890.0, 889.0, 892.0, 888.0, 888.0, 892.0, 889.0, 891.0, 887.0, 888.0, 889.0, 891.0, 892.0, 889.0, 891.0, 893.0, 896.0, 894.0, 892.0, 886.0, 888.0, 890.0, 888.0, 890.0, 890.0, 891.0, 888.0, 888.0, 888.0, 888.0, 888.0, 888.0, 891.0, 893.0, 892.0, 890.0, 888.0, 886.0, 890.0, 892.0, 894.0, 892.0, 892.0, 889.0, 889.0, 891.0, 889.0, 889.0, 889.0, 889.0, 888.0, 891.0, 887.0, 887.0, 887.0, 889.0, 893.0, 892.0, 890.0, 888.0, 888.0, 889.0, 890.0, 891.0, 891.0, 889.0, 888.0, 891.0, 894.0, 895.0, 888.0, 884.0, 886.0, 886.0, 887.0, 889.0, 886.0, 886.0, 886.0, 885.0, 889.0, 890.0, 890.0, 889.0, 889.0, 891.0, 891.0, 888.0, 889.0, 888.0, 890.0, 889.0, 888.0, 889.0, 889.0, 887.0, 886.0, 888.0, 889.0, 887.0, 887.0, 887.0, 888.0, 888.0, 889.0, 887.0, 887.0, 887.0, 889.0, 886.0, 885.0, 888.0, 888.0, 890.0, 888.0, 890.0]
    },
    "slices": {}
  }
}