{
  "AcquisitionMatrixPE": 64,
  "AcquisitionNumber": 1,
  "AcquisitionTime": "17:42:5.650000",
  "BandwidthPerPixelPhaseEncode": 40.064,
  "BaseResolution": 64,
  "BodyPartExamined": "BRAIN",
  "ConsistencyInfo": "N4_VD13D_LATEST_20130810",
  "ConversionSoftware": "dcm2niix",
  "ConversionSoftwareVersion": "v1.0.20191031",
  "DerivedVendorReportedEchoSpacing": 0.000780002,
  "DeviceSerialNumber": "67007",
  "DwellTime": 5.3e-06,
  "EchoTime": 0.03,
  "EchoTrainLength": 31,
  "EffectiveEchoSpacing": 0.000390001,
  "FlipAngle": 75,
  "ImageOrientationPatientDICOM": [0.999504, -0.0265632, 0.0169154, 0.0279187, 0.995929, -0.0857042],
  "ImageType": [
    "ORIGINAL",
    "PRIMARY",
    "M",
    "ND",
    "NORM",
    "MOSAIC"
],
  "ImagingFrequency": 123.211,
  "InPlanePhaseEncodingDirectionDICOM": "ROW",
  "InstitutionAddress": "Perth_Drive_100_London_Ontario_CA_N6A_5K8",
  "InstitutionName": "Robarts-CFMM",
  "InstitutionalDepartmentName": "CFMM",
  "MRAcquisitionType": "2D",
  "MagneticFieldStrength": 3,
  "Manufacturer": "Siemens",
  "ManufacturersModelName": "Prisma_fit",
  "Modality": "MR",
  "ParallelReductionFactorInPlane": 2,
  "PartialFourier": 1,
  "PatientPosition": "HFS",
  "PercentPhaseFOV": 100,
  "PhaseEncodingDirection": "i",
  "PhaseEncodingSteps": 63,
  "PhaseResolution": 1,
  "PixelBandwidth": 1475,
  "ProcedureStepDescription": "Owen_Naci",
  "ProtocolName": "Resting_State",
  "PulseSequenceDetails": "%SiemensSeq%_ep2d_bold",
  "ReceiveCoilActiveElements": "HEA;HEP",
  "ReceiveCoilName": "Head_32",
  "ReconMatrixPE": 64,
  "RefLinesPE": 24,
  "RepetitionTime": 2,
  "SAR": 0.0926387,
  "ScanOptions": "FS",
  "ScanningSequence": "EP",
  "SequenceName": "_epfid2d1_64",
  "SequenceVariant": "SK",
  "SeriesDescription": "Resting_State",
  "SeriesNumber": 7,
  "ShimSetting": [5257, -6190, -3785, 426, 25, 9, -8, 42],
  "SliceThickness": 3,
  "SliceTiming": [1.92, 1.86, 1.8, 1.74, 1.68, 1.62, 1.56, 1.5, 1.44, 1.38, 1.32, 1.26, 1.2, 1.14, 1.08, 1.02, 0.96, 0.9, 0.84, 0.78, 0.72, 0.66, 0.6, 0.54, 0.48, 0.42, 0.36, 0.3, 0.24, 0.18, 0.12, 0.06, 0],
  "SoftwareVersions": "syngo_MR_D13D",
  "SpacingBetweenSlices": 3.75,
  "StationName": "AWP67007",
  "TaskName": "rest",
  "TotalReadoutTime": 0.0245701,
  "TxRefAmp": 266.848,
  "dcmmeta_affine": [
    [-2.998512029647827, 0.08375602215528488, 0.05463742837309837, 93.5044937133789],
    [0.07968969643115997, 2.987788200378418, -0.32300230860710144, -77.36299133300781],
    [0.05074625462293625, 0.257112592458725, 3.735663890838623, -27.535425186157227],
    [0.0, 0.0, 0.0, 1.0]
],
  "dcmmeta_reorient_transform": [
    [0.0, -1.0, 0.0, 63.0],
    [1.0, 0.0, 0.0, 0.0],
    [0.0, 0.0, 1.0, 0.0],
    [0.0, 0.0, 0.0, 1.0]
],
  "dcmmeta_shape": [64, 64, 33, 256],
  "dcmmeta_slice_dim": 2,
  "dcmmeta_version": 0.6,
  "global": {
    "const": {
      "AcquisitionMatrix": [0, 64, 64, 0],
      "AngioFlag": "N",
      "BitsAllocated": 16,
      "BitsStored": 12,
      "BodyPartExamined": "BRAIN",
      "Columns": 384,
      "EchoNumbers": 1,
      "EchoTime": 30.0,
      "EchoTrainLength": 31,
      "FlipAngle": 75.0,
      "HighBit": 11,
      "ImageOrientationPatient": [0.99950400865347, -0.0265632325626, 0.01691541786268, 0.02791867365027, 0.99592938372995, -0.0857042022593],
      "ImagePositionPatient": [-591.94400748564, -576.16341480641, 21.681286421936],
      "ImageType": [
        "ORIGINAL",
        "PRIMARY",
        "M",
        "ND",
        "NORM",
        "MOSAIC"
],
      "ImagedNucleus": "1H",
      "ImagingFrequency": 123.210984,
      "InPlanePhaseEncodingDirection": "ROW",
      "MRAcquisitionType": "2D",
      "MagneticFieldStrength": 3.0,
      "Manufacturer": "SIEMENS",
      "ManufacturerModelName": "Prisma_fit",
      "Modality": "MR",
      "NumberOfAverages": 1.0,
      "NumberOfPhaseEncodingSteps": 63,
      "PercentPhaseFieldOfView": 100.0,
      "PercentSampling": 100.0,
      "PerformedProcedureStepStartTime": "171722.110000",
      "PhotometricInterpretation": "MONOCHROME2",
      "PixelBandwidth": 1475.0,
      "PixelRepresentation": 0,
      "PixelSpacing": [3.0, 3.0],
      "ProtocolName": "Resting State",
      "RepetitionTime": 2000.0,
      "Rows": 384,
      "SAR": 0.09263874636941,
      "SamplesPerPixel": 1,
      "ScanOptions": "FS",
      "ScanningSequence": "EP",
      "SequenceName": "*epfid2d1_64",
      "SequenceVariant": "SK",
      "SeriesDescription": "Resting State",
      "SeriesNumber": 7,
      "SeriesTime": "174257.792000",
      "SliceLocation": -19.404218324505,
      "SliceThickness": 3.0,
      "SmallestImagePixelValue": 0,
      "SoftwareVersions": "syngo MR D13D",
      "SpacingBetweenSlices": 3.7500000025786,
      "SpecificCharacterSet": "ISO_IR 100",
      "StudyID": "1",
      "StudyTime": "171722.004000",
      "TimeOfLastCalibration": ["123723.000000", "123723.000000"],
      "TransmitCoilName": "Body",
      "VariableFlipAngleFlag": "N",
      "WindowCenterWidthExplanation": "Algo1",
      "dBdt": 0.0},
    "slices": {}
  },
  "time": {
    "samples": {
      "AcquisitionNumber": [1, 2, 3, 4, 5, 6, 7, 8, 9, 10, 11, 12, 13, 14, 15, 16, 17, 18, 19, 20, 21, 22, 23, 24, 25, 26, 27, 28, 29, 30, 31, 32, 33, 34, 35, 36, 37, 38, 39, 40, 41, 42, 43, 44, 45, 46, 47, 48, 49, 50, 51, 52, 53, 54, 55, 56, 57, 58, 59, 60, 61, 62, 63, 64, 65, 66, 67, 68, 69, 70, 71, 72, 73, 74, 75, 76, 77, 78, 79, 80, 81, 82, 83, 84, 85, 86, 87, 88, 89, 90, 91, 92, 93, 94, 95, 96, 97, 98, 99, 100, 101, 102, 103, 104, 105, 106, 107, 108, 109, 110, 111, 112, 113, 114, 115, 116, 117, 118, 119, 120, 121, 122, 123, 124, 125, 126, 127, 128, 129, 130, 131, 132, 133, 134, 135, 136, 137, 138, 139, 140, 141, 142, 143, 144, 145, 146, 147, 148, 149, 150, 151, 152, 153, 154, 155, 156, 157, 158, 159, 160, 161, 162, 163, 164, 165, 166, 167, 168, 169, 170, 171, 172, 173, 174, 175, 176, 177, 178, 179, 180, 181, 182, 183, 184, 185, 186, 187, 188, 189, 190, 191, 192, 193, 194, 195, 196, 197, 198, 199, 200, 201, 202, 203, 204, 205, 206, 207, 208, 209, 210, 211, 212, 213, 214, 215, 216, 217, 218, 219, 220, 221, 222, 223, 224, 225, 226, 227, 228, 229, 230, 231, 232, 233, 234, 235, 236, 237, 238, 239, 240, 241, 242, 243, 244, 245, 246, 247, 248, 249, 250, 251, 252, 253, 254, 255, 256],
      "AcquisitionTime": ["174205.650000", "174207.650000", "174209.650000", "174211.650000", "174213.650000", "174215.650000", "174217.650000", "174219.650000", "174221.650000", "174223.650000", "174225.650000", "174227.650000", "174229.650000", "174231.650000", "174233.650000", "174235.650000", "174237.650000", "174239.650000", "174241.650000", "174243.650000", "174245.650000", "174247.650000", "174249.650000", "174251.650000", "174253.650000", "174255.650000", "174257.650000", "174259.650000", "174301.650000", "174303.650000", "174305.650000", "174307.650000", "174309.650000", "174311.650000", "174313.650000", "174315.650000", "174317.650000", "174319.650000", "174321.650000", "174323.650000", "174325.650000", "174327.650000", "174329.650000", "174331.650000", "174333.650000", "174335.650000", "174337.650000", "174339.650000", "174341.650000", "174343.650000", "174345.650000", "174347.650000", "174349.650000", "174351.650000", "174353.650000", "174355.650000", "174357.650000", "174359.650000", "174401.650000", "174403.650000", "174405.650000", "174407.650000", "174409.650000", "174411.650000", "174413.650000", "174415.650000", "174417.650000", "174419.650000", "174421.650000", "174423.650000", "174425.650000", "174427.650000", "174429.650000", "174431.650000", "174433.650000", "174435.650000", "174437.650000", "174439.650000", "174441.650000", "174443.650000", "174445.650000", "174447.650000", "174449.650000", "174451.650000", "174453.650000", "174455.650000", "174457.650000", "174459.650000", "174501.650000", "174503.650000", "174505.650000", "174507.650000", "174509.650000", "174511.650000", "174513.650000", "174515.650000", "174517.650000", "174519.650000", "174521.650000", "174523.650000", "174525.650000", "174527.650000", "174529.650000", "174531.650000", "174533.650000", "174535.650000", "174537.650000", "174539.650000", "174541.650000", "174543.650000", "174545.650000", "174547.650000", "174549.650000", "174551.650000", "174553.650000", "174555.650000", "174557.650000", "174559.650000", "174601.650000", "174603.650000", "174605.650000", "174607.650000", "174609.650000", "174611.650000", "174613.650000", "174615.650000", "174617.650000", "174619.650000", "174621.650000", "174623.650000", "174625.650000", "174627.650000", "174629.650000", "174631.650000", "174633.650000", "174635.650000", "174637.650000", "174639.650000", "174641.650000", "174643.650000", "174645.650000", "174647.650000", "174649.650000", "174651.650000", "174653.650000", "174655.650000", "174657.650000", "174659.650000", "174701.650000", "174703.650000", "174705.650000", "174707.650000", "174709.650000", "174711.650000", "174713.650000", "174715.650000", "174717.652500", "174719.652500", "174721.652500", "174723.652500", "174725.652500", "174727.652500", "174729.652500", "174731.652500", "174733.652500", "174735.652500", "174737.652500", "174739.652500", "174741.652500", "174743.652500", "174745.652500", "174747.652500", "174749.652500", "174751.652500", "174753.652500", "174755.652500", "174757.652500", "174759.652500", "174801.652500", "174803.652500", "174805.652500", "174807.652500", "174809.652500", "174811.652500", "174813.652500", "174815.652500", "174817.652500", "174819.652500", "174821.652500", "174823.652500", "174825.652500", "174827.652500", "174829.652500", "174831.652500", "174833.652500", "174835.652500", "174837.652500", "174839.652500", "174841.652500", "174843.652500", "174845.652500", "174847.652500", "174849.652500", "174851.652500", "174853.652500", "174855.652500", "174857.652500", "174859.652500", "174901.652500", "174903.652500", "174905.652500", "174907.652500", "174909.652500", "174911.652500", "174913.652500", "174915.652500", "174917.652500", "174919.652500", "174921.652500", "174923.652500", "174925.652500", "174927.652500", "174929.652500", "174931.652500", "174933.652500", "174935.652500", "174937.652500", "174939.652500", "174941.652500", "174943.652500", "174945.652500", "174947.652500", "174949.652500", "174951.652500", "174953.652500", "174955.652500", "174957.652500", "174959.652500", "175001.652500", "175003.652500", "175005.652500", "175007.652500", "175009.652500", "175011.652500", "175013.652500", "175015.652500", "175017.652500", "175019.652500", "175021.652500", "175023.652500", "175025.652500", "175027.652500", "175029.652500", "175031.652500", "175033.652500", "175035.652500"],
      "ContentTime": ["174257.796000", "174257.800000", "174257.803000", "174257.805000", "174257.810000", "174257.813000", "174257.816000", "174257.819000", "174257.821000", "174257.824000", "174257.827000", "174257.830000", "174257.833000", "174257.836000", "174257.838000", "174257.841000", "174257.844000", "174257.846000", "174257.849000", "174257.852000", "174257.855000", "174257.858000", "174257.862000", "174257.865000", "174257.867000", "174257.870000", "174337.790000", "174337.794000", "174337.797000", "174337.800000", "174337.803000", "174337.806000", "174337.809000", "174337.813000", "174337.816000", "174337.819000", "174337.822000", "174337.825000", "174337.828000", "174337.831000", "174337.834000", "174337.836000", "174337.839000", "174337.842000", "174337.844000", "174337.847000", "174417.790000", "174417.794000", "174417.796000", "174417.799000", "174417.802000", "174417.807000", "174417.810000", "174417.813000", "174417.816000", "174417.819000", "174417.822000", "174417.825000", "174417.828000", "174417.831000", "174417.833000", "174417.837000", "174417.839000", "174417.842000", "174417.845000", "174417.848000", "174457.790000", "174457.793000", "174457.796000", "174457.799000", "174457.802000", "174457.804000", "174457.808000", "174457.811000", "174457.813000", "174457.816000", "174457.819000", "174457.821000", "174457.824000", "174457.827000", "174457.830000", "174457.833000", "174457.836000", "174457.839000", "174457.841000", "174457.844000", "174537.791000", "174537.794000", "174537.797000", "174537.800000", "174537.803000", "174537.805000", "174537.809000", "174537.812000", "174537.815000", "174537.817000", "174537.820000", "174537.823000", "174537.825000", "174537.828000", "174537.831000", "174537.833000", "174537.836000", "174537.839000", "174537.842000", "174537.845000", "174617.791000", "174617.794000", "174617.797000", "174617.800000", "174617.802000", "174617.805000", "174617.809000", "174617.812000", "174617.815000", "174617.818000", "174617.821000", "174617.824000", "174617.827000", "174617.830000", "174617.832000", "174617.835000", "174617.838000", "174617.841000", "174617.844000", "174617.847000", "174657.791000", "174657.794000", "174657.797000", "174657.799000", "174657.804000", "174657.807000", "174657.810000", "174657.813000", "174657.816000", "174657.819000", "174657.822000", "174657.825000", "174657.828000", "174657.830000", "174657.833000", "174657.836000", "174657.838000", "174657.841000", "174657.844000", "174657.847000", "174737.790000", "174737.793000", "174737.796000", "174737.799000", "174737.803000", "174737.807000", "174737.809000", "174737.812000", "174737.815000", "174737.818000", "174737.821000", "174737.824000", "174737.827000", "174737.829000", "174737.832000", "174737.835000", "174737.838000", "174737.841000", "174737.844000", "174737.847000", "174817.791000", "174817.794000", "174817.797000", "174817.800000", "174817.803000", "174817.806000", "174817.809000", "174817.811000", "174817.815000", "174817.817000", "174817.820000", "174817.822000", "174817.825000", "174817.828000", "174817.830000", "174817.833000", "174817.836000", "174817.838000", "174817.841000", "174817.844000", "174857.792000", "174857.795000", "174857.798000", "174857.801000", "174857.804000", "174857.818000", "174857.821000", "174857.824000", "174857.827000", "174857.830000", "174857.833000", "174857.835000", "174857.838000", "174857.841000", "174857.844000", "174857.847000", "174857.850000", "174857.853000", "174857.856000", "174857.859000", "174937.791000", "174937.795000", "174937.798000", "174937.800000", "174937.804000", "174937.807000", "174937.810000", "174937.813000", "174937.816000", "174937.819000", "174937.821000", "174937.824000", "174937.827000", "174937.830000", "174937.833000", "174937.836000", "174937.838000", "174937.841000", "174937.843000", "174937.846000", "175017.792000", "175017.795000", "175017.798000", "175017.801000", "175017.806000", "175017.809000", "175017.812000", "175017.815000", "175017.818000", "175017.820000", "175017.823000", "175017.826000", "175017.829000", "175017.832000", "175017.835000", "175017.837000", "175017.840000", "175017.843000", "175017.845000", "175017.848000", "175035.867000", "175035.870000", "175035.873000", "175035.876000", "175035.878000", "175035.881000", "175035.884000", "175035.887000", "175035.890000", "175035.899000"],
      "InstanceCreationTime": ["174257.796000", "174257.800000", "174257.803000", "174257.805000", "174257.810000", "174257.813000", "174257.816000", "174257.819000", "174257.821000", "174257.824000", "174257.827000", "174257.830000", "174257.833000", "174257.836000", "174257.838000", "174257.841000", "174257.844000", "174257.846000", "174257.849000", "174257.852000", "174257.855000", "174257.858000", "174257.862000", "174257.865000", "174257.867000", "174257.870000", "174337.790000", "174337.794000", "174337.797000", "174337.800000", "174337.803000", "174337.806000", "174337.809000", "174337.813000", "174337.816000", "174337.819000", "174337.822000", "174337.825000", "174337.828000", "174337.831000", "174337.834000", "174337.836000", "174337.839000", "174337.842000", "174337.844000", "174337.847000", "174417.790000", "174417.794000", "174417.796000", "174417.799000", "174417.802000", "174417.807000", "174417.810000", "174417.813000", "174417.816000", "174417.819000", "174417.822000", "174417.825000", "174417.828000", "174417.831000", "174417.833000", "174417.837000", "174417.839000", "174417.842000", "174417.845000", "174417.848000", "174457.790000", "174457.793000", "174457.796000", "174457.799000", "174457.802000", "174457.804000", "174457.808000", "174457.811000", "174457.813000", "174457.816000", "174457.819000", "174457.821000", "174457.824000", "174457.827000", "174457.830000", "174457.833000", "174457.836000", "174457.839000", "174457.841000", "174457.844000", "174537.791000", "174537.794000", "174537.797000", "174537.800000", "174537.803000", "174537.805000", "174537.809000", "174537.812000", "174537.815000", "174537.817000", "174537.820000", "174537.823000", "174537.825000", "174537.828000", "174537.831000", "174537.833000", "174537.836000", "174537.839000", "174537.842000", "174537.845000", "174617.791000", "174617.794000", "174617.797000", "174617.800000", "174617.802000", "174617.805000", "174617.809000", "174617.812000", "174617.815000", "174617.818000", "174617.821000", "174617.824000", "174617.827000", "174617.830000", "174617.832000", "174617.835000", "174617.838000", "174617.841000", "174617.844000", "174617.847000", "174657.791000", "174657.794000", "174657.797000", "174657.799000", "174657.804000", "174657.807000", "174657.810000", "174657.813000", "174657.816000", "174657.819000", "174657.822000", "174657.825000", "174657.828000", "174657.830000", "174657.833000", "174657.836000", "174657.838000", "174657.841000", "174657.844000", "174657.847000", "174737.790000", "174737.793000", "174737.796000", "174737.799000", "174737.803000", "174737.807000", "174737.809000", "174737.812000", "174737.815000", "174737.818000", "174737.821000", "174737.824000", "174737.827000", "174737.829000", "174737.832000", "174737.835000", "174737.838000", "174737.841000", "174737.844000", "174737.847000", "174817.791000", "174817.794000", "174817.797000", "174817.800000", "174817.803000", "174817.806000", "174817.809000", "174817.811000", "174817.815000", "174817.817000", "174817.820000", "174817.822000", "174817.825000", "174817.828000", "174817.830000", "174817.833000", "174817.836000", "174817.838000", "174817.841000", "174817.844000", "174857.792000", "174857.795000", "174857.798000", "174857.801000", "174857.804000", "174857.818000", "174857.821000", "174857.824000", "174857.827000", "174857.830000", "174857.833000", "174857.835000", "174857.838000", "174857.841000", "174857.844000", "174857.847000", "174857.850000", "174857.853000", "174857.856000", "174857.859000", "174937.791000", "174937.795000", "174937.798000", "174937.800000", "174937.804000", "174937.807000", "174937.810000", "174937.813000", "174937.816000", "174937.819000", "174937.821000", "174937.824000", "174937.827000", "174937.830000", "174937.833000", "174937.836000", "174937.838000", "174937.841000", "174937.843000", "174937.846000", "175017.792000", "175017.795000", "175017.798000", "175017.801000", "175017.806000", "175017.809000", "175017.812000", "175017.815000", "175017.818000", "175017.820000", "175017.823000", "175017.826000", "175017.829000", "175017.832000", "175017.835000", "175017.837000", "175017.840000", "175017.843000", "175017.845000", "175017.848000", "175035.867000", "175035.870000", "175035.873000", "175035.876000", "175035.878000", "175035.881000", "175035.884000", "175035.887000", "175035.890000", "175035.899000"],
      "InstanceNumber": [1, 2, 3, 4, 5, 6, 7, 8, 9, 10, 11, 12, 13, 14, 15, 16, 17, 18, 19, 20, 21, 22, 23, 24, 25, 26, 27, 28, 29, 30, 31, 32, 33, 34, 35, 36, 37, 38, 39, 40, 41, 42, 43, 44, 45, 46, 47, 48, 49, 50, 51, 52, 53, 54, 55, 56, 57, 58, 59, 60, 61, 62, 63, 64, 65, 66, 67, 68, 69, 70, 71, 72, 73, 74, 75, 76, 77, 78, 79, 80, 81, 82, 83, 84, 85, 86, 87, 88, 89, 90, 91, 92, 93, 94, 95, 96, 97, 98, 99, 100, 101, 102, 103, 104, 105, 106, 107, 108, 109, 110, 111, 112, 113, 114, 115, 116, 117, 118, 119, 120, 121, 122, 123, 124, 125, 126, 127, 128, 129, 130, 131, 132, 133, 134, 135, 136, 137, 138, 139, 140, 141, 142, 143, 144, 145, 146, 147, 148, 149, 150, 151, 152, 153, 154, 155, 156, 157, 158, 159, 160, 161, 162, 163, 164, 165, 166, 167, 168, 169, 170, 171, 172, 173, 174, 175, 176, 177, 178, 179, 180, 181, 182, 183, 184, 185, 186, 187, 188, 189, 190, 191, 192, 193, 194, 195, 196, 197, 198, 199, 200, 201, 202, 203, 204, 205, 206, 207, 208, 209, 210, 211, 212, 213, 214, 215, 216, 217, 218, 219, 220, 221, 222, 223, 224, 225, 226, 227, 228, 229, 230, 231, 232, 233, 234, 235, 236, 237, 238, 239, 240, 241, 242, 243, 244, 245, 246, 247, 248, 249, 250, 251, 252, 253, 254, 255, 256],
      "LargestImagePixelValue": [819, 779, 868, 800, 796, 770, 793, 803, 809, 785, 773, 844, 824, 784, 846, 792, 860, 818, 769, 827, 832, 758, 802, 832, 760, 794, 827, 859, 769, 782, 824, 822, 801, 770, 790, 807, 780, 797, 792, 806, 802, 864, 778, 808, 825, 774, 795, 779, 758, 796, 769, 833, 854, 789, 793, 780, 774, 778, 784, 770, 883, 830, 780, 803, 826, 773, 881, 820, 797, 774, 810, 833, 861, 828, 794, 786, 812, 838, 767, 830, 813, 779, 814, 829, 826, 775, 783, 837, 785, 841, 793, 828, 828, 766, 852, 814, 773, 777, 875, 835, 824, 778, 840, 817, 784, 795, 811, 788, 824, 813, 818, 820, 849, 783, 794, 872, 802, 810, 810, 839, 791, 809, 804, 787, 791, 810, 782, 823, 844, 801, 801, 794, 795, 796, 796, 818, 830, 819, 817, 778, 839, 819, 799, 827, 800, 768, 828, 785, 819, 769, 788, 798, 810, 804, 798, 820, 821, 811, 785, 818, 807, 792, 771, 812, 807, 814, 778, 779, 807, 808, 808, 834, 818, 790, 788, 813, 808, 844, 782, 825, 820, 790, 798, 798, 828, 788, 847, 834, 835, 874, 830, 802, 827, 852, 830, 808, 827, 851, 834, 855, 804, 787, 781, 811, 792, 783, 859, 786, 808, 821, 779, 795, 808, 845, 789, 790, 801, 848, 835, 801, 813, 798, 855, 808, 815, 789, 811, 813, 816, 815, 811, 846, 840, 787, 784, 814, 817, 824, 819, 804, 815, 782, 845, 816, 769, 800, 813, 866, 807, 789, 765, 791, 855, 829, 804, 877],
      "WindowCenter": [454.0, 452.0, 452.0, 450.0, 449.0, 449.0, 449.0, 449.0, 450.0, 450.0, 449.0, 450.0, 449.0, 447.0, 448.0, 448.0, 449.0, 449.0, 448.0, 449.0, 448.0, 447.0, 448.0, 448.0, 447.0, 447.0, 449.0, 449.0, 448.0, 450.0, 451.0, 451.0, 450.0, 449.0, 449.0, 449.0, 450.0, 451.0, 451.0, 450.0, 449.0, 449.0, 449.0, 449.0, 449.0, 450.0, 449.0, 448.0, 448.0, 450.0, 449.0, 449.0, 448.0, 448.0, 450.0, 449.0, 448.0, 448.0, 450.0, 450.0, 451.0, 450.0, 450.0, 450.0, 451.0, 450.0, 450.0, 449.0, 450.0, 450.0, 451.0, 451.0, 451.0, 451.0, 450.0, 449.0, 451.0, 451.0, 450.0, 450.0, 450.0, 451.0, 451.0, 451.0, 451.0, 451.0, 451.0, 452.0, 452.0, 452.0, 451.0, 451.0, 451.0, 451.0, 452.0, 451.0, 452.0, 452.0, 453.0, 451.0, 450.0, 450.0, 452.0, 452.0, 451.0, 451.0, 451.0, 451.0, 454.0, 455.0, 455.0, 455.0, 456.0, 455.0, 457.0, 457.0, 454.0, 453.0, 452.0, 452.0, 450.0, 449.0, 450.0, 450.0, 451.0, 450.0, 450.0, 450.0, 451.0, 451.0, 453.0, 454.0, 454.0, 454.0, 455.0, 457.0, 457.0, 455.0, 454.0, 453.0, 454.0, 453.0, 452.0, 452.0, 451.0, 451.0, 452.0, 452.0, 452.0, 451.0, 451.0, 451.0, 452.0, 454.0, 454.0, 455.0, 456.0, 457.0, 456.0, 455.0, 453.0, 452.0, 451.0, 452.0, 452.0, 452.0, 453.0, 453.0, 455.0, 456.0, 457.0, 457.0, 456.0, 456.0, 456.0, 457.0, 457.0, 457.0, 456.0, 456.0, 455.0, 455.0, 456.0, 456.0, 458.0, 458.0, 459.0, 459.0, 458.0, 456.0, 455.0, 455.0, 456.0, 458.0, 459.0, 458.0, 457.0, 455.0, 453.0, 453.0, 453.0, 451.0, 451.0, 451.0, 452.0, 452.0, 454.0, 454.0, 454.0, 454.0, 453.0, 454.0, 455.0, 455.0, 456.0, 455.0, 457.0, 457.0, 458.0, 457.0, 458.0, 456.0, 456.0, 455.0, 455.0, 456.0, 457.0, 456.0, 455.0, 455.0, 454.0, 455.0, 454.0, 453.0, 453.0, 454.0, 455.0, 455.0, 456.0, 456.0, 455.0, 454.0, 454.0, 453.0, 453.0, 454.0, 456.0, 456.0, 455.0, 455.0, 455.0, 456.0, 457.0, 458.0, 458.0, 460.0],
      "WindowWidth": [951.0, 947.0, 946.0, 942.0, 941.0, 941.0, 941.0, 941.0, 943.0, 942.0, 941.0, 942.0, 941.0, 938.0, 938.0, 939.0, 942.0, 941.0, 940.0, 940.0, 939.0, 938.0, 939.0, 939.0, 938.0, 938.0, 940.0, 940.0, 940.0, 942.0, 945.0, 945.0, 943.0, 941.0, 941.0, 942.0, 942.0, 945.0, 944.0, 943.0, 940.0, 940.0, 940.0, 941.0, 941.0, 943.0, 941.0, 940.0, 940.0, 942.0, 941.0, 940.0, 939.0, 940.0, 942.0, 941.0, 940.0, 940.0, 942.0, 943.0, 945.0, 943.0, 943.0, 944.0, 945.0, 944.0, 943.0, 941.0, 943.0, 943.0, 945.0, 944.0, 944.0, 944.0, 942.0, 941.0, 943.0, 944.0, 943.0, 943.0, 942.0, 944.0, 945.0, 945.0, 945.0, 944.0, 944.0, 946.0, 947.0, 946.0, 945.0, 944.0, 944.0, 944.0, 946.0, 945.0, 947.0, 946.0, 947.0, 945.0, 943.0, 943.0, 946.0, 947.0, 946.0, 944.0, 944.0, 946.0, 950.0, 952.0, 952.0, 952.0, 953.0, 953.0, 955.0, 955.0, 951.0, 949.0, 946.0, 945.0, 943.0, 941.0, 942.0, 943.0, 944.0, 942.0, 942.0, 943.0, 944.0, 945.0, 949.0, 949.0, 950.0, 951.0, 953.0, 956.0, 955.0, 953.0, 951.0, 949.0, 949.0, 949.0, 946.0, 946.0, 945.0, 944.0, 947.0, 946.0, 947.0, 945.0, 945.0, 944.0, 946.0, 949.0, 951.0, 952.0, 954.0, 955.0, 954.0, 951.0, 949.0, 946.0, 945.0, 946.0, 947.0, 947.0, 948.0, 949.0, 953.0, 954.0, 956.0, 956.0, 953.0, 953.0, 954.0, 957.0, 957.0, 956.0, 953.0, 955.0, 953.0, 953.0, 954.0, 954.0, 957.0, 957.0, 960.0, 960.0, 957.0, 954.0, 953.0, 952.0, 954.0, 958.0, 960.0, 958.0, 955.0, 952.0, 949.0, 948.0, 949.0, 945.0, 945.0, 945.0, 946.0, 946.0, 951.0, 950.0, 951.0, 950.0, 948.0, 950.0, 951.0, 952.0, 955.0, 953.0, 956.0, 956.0, 957.0, 956.0, 957.0, 954.0, 954.0, 952.0, 953.0, 954.0, 956.0, 955.0, 953.0, 952.0, 951.0, 951.0, 951.0, 949.0, 949.0, 951.0, 951.0, 953.0, 954.0, 954.0, 953.0, 951.0, 950.0, 948.0, 948.0, 950.0, 954.0, 954.0, 952.0, 952.0, 952.0, 954.0, 956.0, 957.0, 959.0, 962.0]
    },
    "slices": {}
  }
}