{
  "AcquisitionMatrixPE": 64,
  "AcquisitionNumber": 1,
  "AcquisitionTime": "17:37:34.075000",
  "BandwidthPerPixelPhaseEncode": 40.064,
  "BaseResolution": 64,
  "BodyPartExamined": "BRAIN",
  "ConsistencyInfo": "N4_VD13D_LATEST_20130810",
  "ConversionSoftware": "dcm2niix",
  "ConversionSoftwareVersion": "v1.0.20191031",
  "DerivedVendorReportedEchoSpacing": 0.000780002,
  "DeviceSerialNumber": "67007",
  "DwellTime": 5.3e-06,
  "EchoTime": 0.03,
  "EchoTrainLength": 31,
  "EffectiveEchoSpacing": 0.000390001,
  "FlipAngle": 75,
  "ImageOrientationPatientDICOM": [1, -2.00395e-10, 4.3693e-11, 2.05103e-10, 0.977046, -0.21303],
  "ImageType": [
    "ORIGINAL",
    "PRIMARY",
    "M",
    "ND",
    "NORM",
    "MOSAIC"
],
  "ImagingFrequency": 123.211,
  "InPlanePhaseEncodingDirectionDICOM": "ROW",
  "InstitutionAddress": "Perth_Drive_100_London_Ontario_CA_N6A_5K8",
  "InstitutionName": "Robarts-CFMM",
  "InstitutionalDepartmentName": "CFMM",
  "MRAcquisitionType": "2D",
  "MagneticFieldStrength": 3,
  "Manufacturer": "Siemens",
  "ManufacturersModelName": "Prisma_fit",
  "Modality": "MR",
  "ParallelReductionFactorInPlane": 2,
  "PartialFourier": 1,
  "PatientPosition": "HFS",
  "PercentPhaseFOV": 100,
  "PhaseEncodingDirection": "i",
  "PhaseEncodingSteps": 63,
  "PhaseResolution": 1,
  "PixelBandwidth": 1475,
  "ProcedureStepDescription": "Owen_Naci",
  "ProtocolName": "Resting_State_deep_sed",
  "PulseSequenceDetails": "%SiemensSeq%_ep2d_bold",
  "ReceiveCoilActiveElements": "HEA;HEP",
  "ReceiveCoilName": "Head_32",
  "ReconMatrixPE": 64,
  "RefLinesPE": 24,
  "RepetitionTime": 2,
  "SAR": 0.0813432,
  "ScanOptions": "FS",
  "ScanningSequence": "EP",
  "SequenceName": "_epfid2d1_64",
  "SequenceVariant": "SK",
  "SeriesDescription": "Resting_State_deep_sed",
  "SeriesNumber": 17,
  "ShimSetting": [5242, -6117, -3817, 297, -14, 115, -82, 6],
  "SliceThickness": 3,
  "SliceTiming": [1.92, 1.86, 1.8, 1.74, 1.68, 1.62, 1.56, 1.5, 1.44, 1.38, 1.32, 1.26, 1.2, 1.14, 1.08, 1.02, 0.96, 0.9, 0.84, 0.78, 0.72, 0.66, 0.6, 0.54, 0.48, 0.42, 0.36, 0.3, 0.24, 0.18, 0.12, 0.06, 0],
  "SoftwareVersions": "syngo_MR_D13D",
  "SpacingBetweenSlices": 3.75,
  "StationName": "AWP67007",
  "TaskName": "rest",
  "TotalReadoutTime": 0.0245701,
  "TxRefAmp": 257.03,
  "dcmmeta_affine": [
    [-3.0, 6.153090259530813e-10, -6.51852468707472e-16, 99.65092468261719],
    [6.01184990678405e-10, 2.9311366081237793, -0.7988640069961548, -67.37769317626953],
    [1.31078994880518e-10, 0.6390911936759949, 3.6639208793640137, -56.40758514404297],
    [0.0, 0.0, 0.0, 1.0]
],
  "dcmmeta_reorient_transform": [
    [0.0, -1.0, 0.0, 63.0],
    [1.0, 0.0, 0.0, 0.0],
    [0.0, 0.0, 1.0, 0.0],
    [0.0, 0.0, 0.0, 1.0]
],
  "dcmmeta_shape": [64, 64, 33, 127],
  "dcmmeta_slice_dim": 2,
  "dcmmeta_version": 0.6,
  "global": {
    "const": {
      "AcquisitionMatrix": [0, 64, 64, 0],
      "AngioFlag": "N",
      "BitsAllocated": 16,
      "BitsStored": 12,
      "BodyPartExamined": "BRAIN",
      "Columns": 384,
      "EchoNumbers": 1,
      "EchoTime": 30.0,
      "EchoTrainLength": 31,
      "FlipAngle": 75.0,
      "HighBit": 11,
      "ImageOrientationPatient": [1.0, -2.00395e-10, 4.3693e-11, 2.05103e-10, 0.97704557251007, -0.2130303951047],
      "ImagePositionPatient": [-579.65092718494, -586.2657984785, 86.109751024373],
      "ImageType": [
        "ORIGINAL",
        "PRIMARY",
        "M",
        "ND",
        "NORM",
        "MOSAIC"
],
      "ImagedNucleus": "1H",
      "ImagingFrequency": 123.21098,
      "InPlanePhaseEncodingDirection": "ROW",
      "MRAcquisitionType": "2D",
      "MagneticFieldStrength": 3.0,
      "Manufacturer": "SIEMENS",
      "ManufacturerModelName": "Prisma_fit",
      "Modality": "MR",
      "NumberOfAverages": 1.0,
      "NumberOfPhaseEncodingSteps": 63,
      "PercentPhaseFieldOfView": 100.0,
      "PercentSampling": 100.0,
      "PerformedProcedureStepStartTime": "150817.850000",
      "PhotometricInterpretation": "MONOCHROME2",
      "PixelBandwidth": 1475.0,
      "PixelRepresentation": 0,
      "PixelSpacing": [3.0, 3.0],
      "ProtocolName": "Resting State_deep sed",
      "RepetitionTime": 2000.0,
      "Rows": 384,
      "SAR": 0.08134317669938,
      "SamplesPerPixel": 1,
      "ScanOptions": "FS",
      "ScanningSequence": "EP",
      "SequenceName": "*epfid2d1_64",
      "SequenceVariant": "SK",
      "SeriesDescription": "Resting State_deep sed",
      "SeriesNumber": 17,
      "SeriesTime": "173821.524000",
      "SliceLocation": -40.759283697934,
      "SliceThickness": 3.0,
      "SmallestImagePixelValue": 0,
      "SoftwareVersions": "syngo MR D13D",
      "SpacingBetweenSlices": 3.7499999803191,
      "SpecificCharacterSet": "ISO_IR 100",
      "StudyID": "1",
      "StudyTime": "150817.803000",
      "TimeOfLastCalibration": ["123723.000000", "123723.000000"],
      "TransmitCoilName": "Body",
      "VariableFlipAngleFlag": "N",
      "WindowCenterWidthExplanation": "Algo1",
      "dBdt": 0.0},
    "slices": {}
  },
  "time": {
    "samples": {
      "AcquisitionNumber": [1, 3, 4, 8, 9, 10, 11, 16, 18, 20, 23, 26, 30, 32, 33, 34, 35, 39, 40, 43, 44, 47, 48, 51, 54, 55, 58, 62, 65, 66, 69, 70, 72, 75, 76, 78, 81, 83, 84, 86, 89, 90, 91, 92, 94, 96, 97, 98, 99, 100, 103, 104, 105, 110, 111, 113, 114, 116, 117, 119, 120, 121, 122, 123, 127, 129, 132, 133, 134, 136, 140, 143, 144, 147, 148, 150, 152, 156, 157, 160, 161, 163, 165, 166, 167, 171, 172, 173, 174, 182, 183, 185, 186, 188, 189, 190, 193, 194, 198, 199, 200, 201, 204, 206, 207, 213, 217, 220, 222, 226, 227, 228, 229, 230, 231, 234, 236, 239, 240, 242, 246, 247, 250, 252, 253, 255, 256],
      "AcquisitionTime": ["173734.075000", "173738.075000", "173740.075000", "173748.075000", "173750.075000", "173752.075000", "173754.075000", "173804.075000", "173808.075000", "173812.075000", "173818.075000", "173824.075000", "173832.075000", "173836.075000", "173838.075000", "173840.075000", "173842.075000", "173850.075000", "173852.075000", "173858.075000", "173900.075000", "173906.075000", "173908.075000", "173914.075000", "173920.075000", "173922.075000", "173928.075000", "173936.075000", "173942.075000", "173944.075000", "173950.075000", "173952.075000", "173956.075000", "174002.075000", "174004.075000", "174008.075000", "174014.075000", "174018.075000", "174020.075000", "174024.075000", "174030.075000", "174032.075000", "174034.075000", "174036.075000", "174040.075000", "174044.075000", "174046.075000", "174048.075000", "174050.075000", "174052.075000", "174058.075000", "174100.075000", "174102.075000", "174112.075000", "174114.075000", "174118.075000", "174120.075000", "174124.075000", "174126.075000", "174130.075000", "174132.075000", "174134.075000", "174136.075000", "174138.075000", "174146.075000", "174150.075000", "174156.075000", "174158.075000", "174200.075000", "174204.075000", "174212.075000", "174218.075000", "174220.075000", "174226.075000", "174228.075000", "174232.075000", "174236.075000", "174244.077500", "174246.077500", "174252.077500", "174254.077500", "174258.077500", "174302.077500", "174304.077500", "174306.077500", "174314.077500", "174316.077500", "174318.077500", "174320.077500", "174336.077500", "174338.077500", "174342.077500", "174344.077500", "174348.077500", "174350.077500", "174352.077500", "174358.077500", "174400.077500", "174408.077500", "174410.077500", "174412.077500", "174414.077500", "174420.077500", "174424.077500", "174426.077500", "174438.077500", "174446.077500", "174452.077500", "174456.077500", "174504.077500", "174506.077500", "174508.077500", "174510.077500", "174512.077500", "174514.077500", "174520.077500", "174524.077500", "174530.077500", "174532.077500", "174536.077500", "174544.077500", "174546.077500", "174552.077500", "174556.077500", "174558.077500", "174602.077500", "174604.077500"],
      "ContentTime": ["173821.528000", "173821.534000", "173821.537000", "173821.549000", "173821.552000", "173821.555000", "173821.558000", "173821.577000", "173821.583000", "173821.589000", "173821.597000", "173901.526000", "173901.537000", "173901.543000", "173901.546000", "173901.549000", "173901.552000", "173901.564000", "173901.567000", "173901.575000", "173901.578000", "173941.530000", "173941.533000", "173941.542000", "173941.550000", "173941.553000", "173941.561000", "173941.573000", "174021.521000", "174021.525000", "174021.534000", "174021.537000", "174021.542000", "174021.551000", "174021.554000", "174021.559000", "174021.567000", "174021.573000", "174021.576000", "174101.526000", "174101.535000", "174101.538000", "174101.541000", "174101.544000", "174101.553000", "174101.609000", "174101.612000", "174101.616000", "174101.619000", "174101.622000", "174101.630000", "174101.633000", "174141.522000", "174141.537000", "174141.539000", "174141.545000", "174141.548000", "174141.554000", "174141.557000", "174141.563000", "174141.565000", "174141.568000", "174141.571000", "174141.574000", "174221.529000", "174221.534000", "174221.542000", "174221.545000", "174221.548000", "174221.561000", "174221.573000", "174221.582000", "174221.585000", "174301.528000", "174301.531000", "174301.537000", "174301.542000", "174301.554000", "174301.557000", "174301.566000", "174301.568000", "174301.574000", "174341.522000", "174341.526000", "174341.528000", "174341.540000", "174341.542000", "174341.545000", "174341.548000", "174341.571000", "174341.574000", "174421.522000", "174421.525000", "174421.531000", "174421.534000", "174421.537000", "174421.545000", "174421.548000", "174421.560000", "174421.564000", "174421.566000", "174421.569000", "174421.578000", "174501.523000", "174501.526000", "174501.543000", "174501.555000", "174501.564000", "174501.570000", "174541.526000", "174541.528000", "174541.531000", "174541.534000", "174541.537000", "174541.540000", "174541.548000", "174541.554000", "174541.563000", "174541.566000", "174541.572000", "174605.179000", "174605.182000", "174605.191000", "174605.197000", "174605.200000", "174605.206000", "174605.209000"],
      "InstanceCreationTime": ["173821.528000", "173821.534000", "173821.537000", "173821.549000", "173821.552000", "173821.555000", "173821.558000", "173821.577000", "173821.583000", "173821.589000", "173821.597000", "173901.526000", "173901.537000", "173901.543000", "173901.546000", "173901.549000", "173901.552000", "173901.564000", "173901.567000", "173901.575000", "173901.578000", "173941.530000", "173941.533000", "173941.542000", "173941.550000", "173941.553000", "173941.561000", "173941.573000", "174021.521000", "174021.525000", "174021.534000", "174021.537000", "174021.542000", "174021.551000", "174021.554000", "174021.559000", "174021.567000", "174021.573000", "174021.576000", "174101.526000", "174101.535000", "174101.538000", "174101.541000", "174101.544000", "174101.553000", "174101.609000", "174101.612000", "174101.616000", "174101.619000", "174101.622000", "174101.630000", "174101.633000", "174141.522000", "174141.537000", "174141.539000", "174141.545000", "174141.548000", "174141.554000", "174141.557000", "174141.563000", "174141.565000", "174141.568000", "174141.571000", "174141.574000", "174221.529000", "174221.534000", "174221.542000", "174221.545000", "174221.548000", "174221.561000", "174221.573000", "174221.582000", "174221.585000", "174301.528000", "174301.531000", "174301.537000", "174301.542000", "174301.554000", "174301.557000", "174301.566000", "174301.568000", "174301.574000", "174341.522000", "174341.526000", "174341.528000", "174341.540000", "174341.542000", "174341.545000", "174341.548000", "174341.571000", "174341.574000", "174421.522000", "174421.525000", "174421.531000", "174421.534000", "174421.537000", "174421.545000", "174421.548000", "174421.560000", "174421.564000", "174421.566000", "174421.569000", "174421.578000", "174501.523000", "174501.526000", "174501.543000", "174501.555000", "174501.564000", "174501.570000", "174541.526000", "174541.528000", "174541.531000", "174541.534000", "174541.537000", "174541.540000", "174541.548000", "174541.554000", "174541.563000", "174541.566000", "174541.572000", "174605.179000", "174605.182000", "174605.191000", "174605.197000", "174605.200000", "174605.206000", "174605.209000"],
      "InstanceNumber": [1, 3, 4, 8, 9, 10, 11, 16, 18, 20, 23, 26, 30, 32, 33, 34, 35, 39, 40, 43, 44, 47, 48, 51, 54, 55, 58, 62, 65, 66, 69, 70, 72, 75, 76, 78, 81, 83, 84, 86, 89, 90, 91, 92, 94, 96, 97, 98, 99, 100, 103, 104, 105, 110, 111, 113, 114, 116, 117, 119, 120, 121, 122, 123, 127, 129, 132, 133, 134, 136, 140, 143, 144, 147, 148, 150, 152, 156, 157, 160, 161, 163, 165, 166, 167, 171, 172, 173, 174, 182, 183, 185, 186, 188, 189, 190, 193, 194, 198, 199, 200, 201, 204, 206, 207, 213, 217, 220, 222, 226, 227, 228, 229, 230, 231, 234, 236, 239, 240, 242, 246, 247, 250, 252, 253, 255, 256],
      "LargestImagePixelValue": [843, 749, 792, 760, 854, 751, 729, 895, 770, 765, 885, 932, 1010, 753, 870, 980, 921, 824, 771, 751, 919, 1042, 760, 772, 771, 768, 825, 890, 791, 789, 835, 788, 937, 795, 781, 755, 797, 751, 877, 768, 742, 936, 736, 749, 842, 901, 749, 803, 759, 786, 735, 735, 738, 757, 740, 806, 946, 752, 921, 805, 738, 733, 733, 933, 761, 813, 920, 784, 746, 770, 744, 752, 774, 741, 780, 723, 729, 790, 788, 899, 719, 819, 767, 829, 813, 828, 807, 788, 923, 1020, 829, 776, 822, 807, 936, 786, 943, 775, 908, 777, 774, 772, 779, 804, 1182, 784, 873, 801, 949, 794, 1117, 1036, 756, 756, 779, 772, 796, 906, 769, 769, 766, 888, 777, 1150, 805, 918, 958],
      "WindowCenter": [442.0, 438.0, 438.0, 438.0, 438.0, 437.0, 437.0, 440.0, 438.0, 438.0, 439.0, 441.0, 440.0, 437.0, 438.0, 439.0, 438.0, 438.0, 438.0, 438.0, 441.0, 439.0, 436.0, 437.0, 438.0, 438.0, 439.0, 439.0, 440.0, 442.0, 440.0, 439.0, 447.0, 445.0, 441.0, 439.0, 440.0, 442.0, 441.0, 439.0, 436.0, 440.0, 437.0, 437.0, 438.0, 440.0, 438.0, 438.0, 439.0, 439.0, 437.0, 437.0, 438.0, 438.0, 438.0, 438.0, 440.0, 438.0, 439.0, 437.0, 436.0, 437.0, 438.0, 439.0, 437.0, 437.0, 439.0, 438.0, 438.0, 438.0, 442.0, 442.0, 443.0, 439.0, 439.0, 438.0, 439.0, 439.0, 438.0, 439.0, 438.0, 438.0, 438.0, 440.0, 443.0, 441.0, 439.0, 439.0, 439.0, 440.0, 437.0, 438.0, 438.0, 436.0, 437.0, 437.0, 438.0, 436.0, 438.0, 437.0, 437.0, 437.0, 438.0, 439.0, 442.0, 439.0, 441.0, 440.0, 440.0, 439.0, 449.0, 442.0, 439.0, 439.0, 439.0, 439.0, 439.0, 440.0, 438.0, 438.0, 437.0, 438.0, 438.0, 440.0, 438.0, 445.0, 440.0],
      "WindowWidth": [924.0, 918.0, 917.0, 916.0, 917.0, 915.0, 915.0, 920.0, 917.0, 917.0, 918.0, 922.0, 920.0, 916.0, 916.0, 917.0, 916.0, 916.0, 916.0, 916.0, 921.0, 918.0, 914.0, 915.0, 917.0, 916.0, 918.0, 919.0, 920.0, 925.0, 920.0, 918.0, 935.0, 930.0, 923.0, 918.0, 920.0, 924.0, 923.0, 919.0, 914.0, 919.0, 915.0, 915.0, 917.0, 920.0, 918.0, 918.0, 918.0, 918.0, 915.0, 915.0, 917.0, 917.0, 917.0, 917.0, 920.0, 917.0, 918.0, 914.0, 914.0, 915.0, 917.0, 919.0, 915.0, 916.0, 918.0, 917.0, 916.0, 916.0, 925.0, 926.0, 926.0, 919.0, 920.0, 917.0, 918.0, 918.0, 917.0, 919.0, 917.0, 917.0, 916.0, 921.0, 927.0, 923.0, 918.0, 917.0, 918.0, 919.0, 915.0, 917.0, 917.0, 913.0, 915.0, 914.0, 916.0, 913.0, 916.0, 915.0, 915.0, 915.0, 916.0, 919.0, 923.0, 918.0, 922.0, 920.0, 920.0, 919.0, 939.0, 924.0, 919.0, 920.0, 919.0, 918.0, 919.0, 920.0, 917.0, 916.0, 915.0, 917.0, 916.0, 920.0, 918.0, 929.0, 920.0]
    },
    "slices": {}
  }
}