{
  "AcquisitionMatrixPE": 64,
  "AcquisitionNumber": 1,
  "AcquisitionTime": "18:51:13.767500",
  "BandwidthPerPixelPhaseEncode": 40.064,
  "BaseResolution": 64,
  "BodyPartExamined": "BRAIN",
  "ConsistencyInfo": "N4_VD13D_LATEST_20130810",
  "ConversionSoftware": "dcm2niix",
  "ConversionSoftwareVersion": "v1.0.20191031",
  "DerivedVendorReportedEchoSpacing": 0.000780002,
  "DeviceSerialNumber": "67007",
  "DwellTime": 5.3e-06,
  "EchoTime": 0.03,
  "EchoTrainLength": 31,
  "EffectiveEchoSpacing": 0.000390001,
  "FlipAngle": 75,
  "ImageOrientationPatientDICOM": [0.999133, 0.0414006, 0.00450159, -0.0401293, 0.98603, -0.161662],
  "ImageType": [
    "ORIGINAL",
    "PRIMARY",
    "M",
    "ND",
    "NORM",
    "MOSAIC"
],
  "ImagingFrequency": 123.211,
  "InPlanePhaseEncodingDirectionDICOM": "ROW",
  "InstitutionAddress": "Perth_Drive_100_London_Ontario_CA_N6A_5K8",
  "InstitutionName": "Robarts_Research_Institute",
  "InstitutionalDepartmentName": "CFMM",
  "MRAcquisitionType": "2D",
  "MagneticFieldStrength": 3,
  "Manufacturer": "Siemens",
  "ManufacturersModelName": "Prisma_fit",
  "Modality": "MR",
  "ParallelReductionFactorInPlane": 2,
  "PartialFourier": 1,
  "PatientPosition": "HFS",
  "PercentPhaseFOV": 100,
  "PhaseEncodingDirection": "i",
  "PhaseEncodingSteps": 63,
  "PhaseResolution": 1,
  "PixelBandwidth": 1475,
  "ProcedureStepDescription": "Owen_Naci",
  "ProtocolName": "Resting_State",
  "PulseSequenceDetails": "%SiemensSeq%_ep2d_bold",
  "ReceiveCoilActiveElements": "HEA;HEP",
  "ReceiveCoilName": "Head_32",
  "ReconMatrixPE": 64,
  "RefLinesPE": 24,
  "RepetitionTime": 2,
  "SAR": 0.121103,
  "ScanOptions": "FS",
  "ScanningSequence": "EP",
  "SequenceName": "_epfid2d1_64",
  "SequenceVariant": "SK",
  "SeriesDescription": "Resting_State",
  "SeriesNumber": 5,
  "ShimSetting": [5262, -6210, -3765, 402, 28, -118, 122, -6],
  "SliceThickness": 3,
  "SliceTiming": [1.92, 1.86, 1.8, 1.74, 1.68, 1.62, 1.56, 1.5, 1.44, 1.38, 1.32, 1.26, 1.2, 1.14, 1.08, 1.02, 0.96, 0.9, 0.84, 0.78, 0.72, 0.66, 0.6, 0.54, 0.48, 0.42, 0.36, 0.3, 0.24, 0.18, 0.12, 0.06, 0],
  "SoftwareVersions": "syngo_MR_D13D",
  "SpacingBetweenSlices": 3.75,
  "StationName": "AWP67007",
  "TaskName": "rest",
  "TotalReadoutTime": 0.0245701,
  "TxRefAmp": 322.304,
  "dcmmeta_affine": [
    [-2.9973974227905273, -0.12038791924715042, 0.04174353927373886, 101.47430419921875],
    [-0.12420179694890976, 2.958089828491211, -0.605029284954071, -64.37215423583984],
    [0.01350477896630764, 0.4849861264228821, 3.700634479522705, -41.04717254638672],
    [0.0, 0.0, 0.0, 1.0]
],
  "dcmmeta_reorient_transform": [
    [0.0, -1.0, 0.0, 63.0],
    [1.0, 0.0, 0.0, 0.0],
    [0.0, 0.0, 1.0, 0.0],
    [0.0, 0.0, 0.0, 1.0]
],
  "dcmmeta_shape": [64, 64, 33, 256],
  "dcmmeta_slice_dim": 2,
  "dcmmeta_version": 0.6,
  "global": {
    "const": {
      "AcquisitionMatrix": [0, 64, 64, 0],
      "AngioFlag": "N",
      "BitsAllocated": 16,
      "BitsStored": 12,
      "BodyPartExamined": "BRAIN",
      "Columns": 384,
      "EchoNumbers": 1,
      "EchoTime": 30.0,
      "EchoTrainLength": 31,
      "FlipAngle": 75.0,
      "HighBit": 11,
      "ImageOrientationPatient": [0.99913248669789, 0.04140060004933, 0.0045015931021, -0.0401293067298, 0.9860299298234, -0.1616620432688],
      "ImagePositionPatient": [-554.21138984718, -615.15415314492, 64.943971145387],
      "ImageType": [
        "ORIGINAL",
        "PRIMARY",
        "M",
        "ND",
        "NORM",
        "MOSAIC"
],
      "ImagedNucleus": "1H",
      "ImagingFrequency": 123.211187,
      "InPlanePhaseEncodingDirection": "ROW",
      "MRAcquisitionType": "2D",
      "MagneticFieldStrength": 3.0,
      "Manufacturer": "SIEMENS",
      "ManufacturerModelName": "Prisma_fit",
      "Modality": "MR",
      "NumberOfAverages": 1.0,
      "NumberOfPhaseEncodingSteps": 63,
      "PercentPhaseFieldOfView": 100.0,
      "PercentSampling": 100.0,
      "PerformedProcedureStepStartTime": "183209.631000",
      "PhotometricInterpretation": "MONOCHROME2",
      "PixelBandwidth": 1475.0,
      "PixelRepresentation": 0,
      "PixelSpacing": [3.0, 3.0],
      "ProtocolName": "Resting State",
      "RepetitionTime": 2000.0,
      "Rows": 384,
      "SAR": 0.12110299955505,
      "SamplesPerPixel": 1,
      "ScanOptions": "FS",
      "ScanningSequence": "EP",
      "SequenceName": "*epfid2d1_64",
      "SequenceVariant": "SK",
      "SeriesDescription": "Resting State",
      "SeriesNumber": 5,
      "SeriesTime": "185207.820000",
      "SliceLocation": -28.991371898816,
      "SliceThickness": 3.0,
      "SmallestImagePixelValue": 0,
      "SoftwareVersions": "syngo MR D13D",
      "SpacingBetweenSlices": 3.7499999177386,
      "SpecificCharacterSet": "ISO_IR 100",
      "StudyID": "1",
      "StudyTime": "183209.576000",
      "TimeOfLastCalibration": ["123723.000000", "123723.000000"],
      "TransmitCoilName": "Body",
      "VariableFlipAngleFlag": "N",
      "WindowCenterWidthExplanation": "Algo1",
      "dBdt": 0.0},
    "slices": {}
  },
  "time": {
    "samples": {
      "AcquisitionNumber": [1, 2, 3, 4, 5, 6, 7, 8, 9, 10, 11, 12, 13, 14, 15, 16, 17, 18, 19, 20, 21, 22, 23, 24, 25, 26, 27, 28, 29, 30, 31, 32, 33, 34, 35, 36, 37, 38, 39, 40, 41, 42, 43, 44, 45, 46, 47, 48, 49, 50, 51, 52, 53, 54, 55, 56, 57, 58, 59, 60, 61, 62, 63, 64, 65, 66, 67, 68, 69, 70, 71, 72, 73, 74, 75, 76, 77, 78, 79, 80, 81, 82, 83, 84, 85, 86, 87, 88, 89, 90, 91, 92, 93, 94, 95, 96, 97, 98, 99, 100, 101, 102, 103, 104, 105, 106, 107, 108, 109, 110, 111, 112, 113, 114, 115, 116, 117, 118, 119, 120, 121, 122, 123, 124, 125, 126, 127, 128, 129, 130, 131, 132, 133, 134, 135, 136, 137, 138, 139, 140, 141, 142, 143, 144, 145, 146, 147, 148, 149, 150, 151, 152, 153, 154, 155, 156, 157, 158, 159, 160, 161, 162, 163, 164, 165, 166, 167, 168, 169, 170, 171, 172, 173, 174, 175, 176, 177, 178, 179, 180, 181, 182, 183, 184, 185, 186, 187, 188, 189, 190, 191, 192, 193, 194, 195, 196, 197, 198, 199, 200, 201, 202, 203, 204, 205, 206, 207, 208, 209, 210, 211, 212, 213, 214, 215, 216, 217, 218, 219, 220, 221, 222, 223, 224, 225, 226, 227, 228, 229, 230, 231, 232, 233, 234, 235, 236, 237, 238, 239, 240, 241, 242, 243, 244, 245, 246, 247, 248, 249, 250, 251, 252, 253, 254, 255, 256],
      "AcquisitionTime": ["185113.767500", "185115.767500", "185117.767500", "185119.767500", "185121.767500", "185123.767500", "185125.767500", "185127.767500", "185129.767500", "185131.767500", "185133.767500", "185135.767500", "185137.767500", "185139.767500", "185141.767500", "185143.767500", "185145.767500", "185147.767500", "185149.767500", "185151.767500", "185153.767500", "185155.767500", "185157.767500", "185159.767500", "185201.767500", "185203.767500", "185205.767500", "185207.767500", "185209.767500", "185211.767500", "185213.767500", "185215.767500", "185217.767500", "185219.767500", "185221.767500", "185223.767500", "185225.767500", "185227.767500", "185229.767500", "185231.767500", "185233.767500", "185235.767500", "185237.767500", "185239.767500", "185241.767500", "185243.767500", "185245.767500", "185247.767500", "185249.767500", "185251.767500", "185253.767500", "185255.767500", "185257.767500", "185259.767500", "185301.767500", "185303.767500", "185305.767500", "185307.767500", "185309.767500", "185311.767500", "185313.767500", "185315.767500", "185317.767500", "185319.767500", "185321.767500", "185323.767500", "185325.767500", "185327.767500", "185329.767500", "185331.767500", "185333.767500", "185335.767500", "185337.767500", "185339.767500", "185341.767500", "185343.767500", "185345.767500", "185347.767500", "185349.767500", "185351.767500", "185353.767500", "185355.767500", "185357.767500", "185359.767500", "185401.767500", "185403.767500", "185405.767500", "185407.767500", "185409.767500", "185411.767500", "185413.767500", "185415.767500", "185417.767500", "185419.767500", "185421.767500", "185423.767500", "185425.767500", "185427.767500", "185429.767500", "185431.767500", "185433.767500", "185435.767500", "185437.767500", "185439.767500", "185441.767500", "185443.767500", "185445.767500", "185447.767500", "185449.767500", "185451.767500", "185453.767500", "185455.767500", "185457.767500", "185459.767500", "185501.767500", "185503.767500", "185505.767500", "185507.767500", "185509.767500", "185511.767500", "185513.767500", "185515.767500", "185517.767500", "185519.767500", "185521.767500", "185523.767500", "185525.767500", "185527.767500", "185529.767500", "185531.767500", "185533.767500", "185535.767500", "185537.767500", "185539.767500", "185541.767500", "185543.767500", "185545.767500", "185547.767500", "185549.767500", "185551.767500", "185553.767500", "185555.767500", "185557.767500", "185559.767500", "185601.767500", "185603.767500", "185605.767500", "185607.767500", "185609.767500", "185611.767500", "185613.767500", "185615.767500", "185617.767500", "185619.767500", "185621.767500", "185623.767500", "185625.767500", "185627.767500", "185629.767500", "185631.767500", "185633.767500", "185635.767500", "185637.767500", "185639.767500", "185641.767500", "185643.767500", "185645.767500", "185647.767500", "185649.767500", "185651.767500", "185653.767500", "185655.767500", "185657.767500", "185659.767500", "185701.767500", "185703.767500", "185705.767500", "185707.767500", "185709.767500", "185711.767500", "185713.767500", "185715.767500", "185717.767500", "185719.767500", "185721.767500", "185723.767500", "185725.767500", "185727.767500", "185729.767500", "185731.767500", "185733.767500", "185735.767500", "185737.767500", "185739.767500", "185741.767500", "185743.767500", "185745.767500", "185747.767500", "185749.767500", "185751.767500", "185753.767500", "185755.767500", "185757.767500", "185759.767500", "185801.767500", "185803.767500", "185805.767500", "185807.767500", "185809.767500", "185811.767500", "185813.767500", "185815.767500", "185817.767500", "185819.767500", "185821.767500", "185823.767500", "185825.767500", "185827.767500", "185829.767500", "185831.767500", "185833.767500", "185835.767500", "185837.767500", "185839.767500", "185841.767500", "185843.767500", "185845.770000", "185847.770000", "185849.770000", "185851.770000", "185853.770000", "185855.770000", "185857.770000", "185859.770000", "185901.770000", "185903.770000", "185905.770000", "185907.770000", "185909.770000", "185911.770000", "185913.770000", "185915.770000", "185917.770000", "185919.770000", "185921.770000", "185923.770000", "185925.770000", "185927.770000", "185929.770000", "185931.770000", "185933.770000", "185935.770000", "185937.770000", "185939.770000", "185941.770000", "185943.770000"],
      "ContentTime": ["185207.825000", "185207.828000", "185207.831000", "185207.834000", "185207.841000", "185207.844000", "185207.847000", "185207.849000", "185207.852000", "185207.855000", "185207.857000", "185207.860000", "185207.863000", "185207.865000", "185207.868000", "185207.871000", "185207.874000", "185207.876000", "185207.879000", "185207.882000", "185207.885000", "185207.887000", "185207.890000", "185207.893000", "185207.896000", "185207.898000", "185207.901000", "185247.818000", "185247.822000", "185247.824000", "185247.827000", "185247.830000", "185247.833000", "185247.835000", "185247.838000", "185247.841000", "185247.843000", "185247.846000", "185247.849000", "185247.851000", "185247.854000", "185247.857000", "185247.860000", "185247.862000", "185247.865000", "185247.874000", "185247.877000", "185307.817000", "185307.820000", "185307.823000", "185307.826000", "185307.828000", "185307.831000", "185307.834000", "185307.837000", "185307.839000", "185307.842000", "185347.817000", "185347.820000", "185347.823000", "185347.826000", "185347.828000", "185347.831000", "185347.834000", "185347.836000", "185347.845000", "185347.847000", "185347.850000", "185347.853000", "185347.856000", "185347.859000", "185347.861000", "185347.864000", "185347.867000", "185347.870000", "185347.872000", "185347.875000", "185427.817000", "185427.820000", "185427.823000", "185427.826000", "185427.829000", "185427.832000", "185427.835000", "185427.838000", "185427.840000", "185427.843000", "185427.846000", "185427.849000", "185427.852000", "185427.855000", "185427.858000", "185427.861000", "185427.864000", "185427.867000", "185427.870000", "185427.872000", "185507.818000", "185507.821000", "185507.823000", "185507.826000", "185507.829000", "185507.832000", "185507.835000", "185507.838000", "185507.840000", "185507.843000", "185507.846000", "185507.849000", "185507.851000", "185507.854000", "185507.857000", "185507.860000", "185507.863000", "185507.866000", "185507.869000", "185507.871000", "185547.819000", "185547.822000", "185547.825000", "185547.827000", "185547.830000", "185547.833000", "185547.836000", "185547.839000", "185547.841000", "185547.844000", "185547.847000", "185547.850000", "185547.853000", "185547.856000", "185547.858000", "185547.861000", "185547.864000", "185547.867000", "185547.870000", "185547.872000", "185627.819000", "185627.822000", "185627.824000", "185627.827000", "185627.830000", "185627.845000", "185627.848000", "185627.851000", "185627.853000", "185627.856000", "185627.859000", "185627.862000", "185627.864000", "185627.867000", "185627.870000", "185627.873000", "185627.876000", "185627.879000", "185627.881000", "185627.884000", "185707.817000", "185707.820000", "185707.823000", "185707.826000", "185707.829000", "185707.832000", "185707.834000", "185707.837000", "185707.840000", "185707.843000", "185707.846000", "185707.848000", "185707.851000", "185707.854000", "185707.857000", "185707.860000", "185707.863000", "185707.866000", "185707.868000", "185707.871000", "185747.819000", "185747.822000", "185747.825000", "185747.827000", "185747.830000", "185747.833000", "185747.836000", "185747.838000", "185747.841000", "185747.844000", "185747.847000", "185747.849000", "185747.852000", "185747.855000", "185747.857000", "185747.860000", "185747.863000", "185747.866000", "185747.868000", "185747.871000", "185827.819000", "185827.822000", "185827.825000", "185827.828000", "185827.831000", "185827.833000", "185827.836000", "185827.839000", "185827.842000", "185827.845000", "185827.847000", "185827.850000", "185827.853000", "185827.856000", "185827.859000", "185827.862000", "185827.864000", "185827.867000", "185827.870000", "185827.873000", "185907.819000", "185907.823000", "185907.825000", "185907.828000", "185907.831000", "185907.834000", "185907.837000", "185907.839000", "185907.842000", "185907.845000", "185907.848000", "185907.851000", "185907.854000", "185907.856000", "185907.859000", "185907.862000", "185907.865000", "185907.868000", "185907.870000", "185907.873000", "185944.593000", "185944.596000", "185944.599000", "185944.602000", "185944.605000", "185944.608000", "185944.611000", "185944.613000", "185944.616000", "185944.620000", "185944.625000", "185944.630000", "185944.633000", "185944.636000", "185944.640000", "185944.643000", "185944.646000", "185944.649000", "185944.652000"],
      "InstanceCreationTime": ["185207.825000", "185207.828000", "185207.831000", "185207.834000", "185207.841000", "185207.844000", "185207.847000", "185207.849000", "185207.852000", "185207.855000", "185207.857000", "185207.860000", "185207.863000", "185207.865000", "185207.868000", "185207.871000", "185207.874000", "185207.876000", "185207.879000", "185207.882000", "185207.885000", "185207.887000", "185207.890000", "185207.893000", "185207.896000", "185207.898000", "185207.901000", "185247.818000", "185247.822000", "185247.824000", "185247.827000", "185247.830000", "185247.833000", "185247.835000", "185247.838000", "185247.841000", "185247.843000", "185247.846000", "185247.849000", "185247.851000", "185247.854000", "185247.857000", "185247.860000", "185247.862000", "185247.865000", "185247.874000", "185247.877000", "185307.817000", "185307.820000", "185307.823000", "185307.826000", "185307.828000", "185307.831000", "185307.834000", "185307.837000", "185307.839000", "185307.842000", "185347.817000", "185347.820000", "185347.823000", "185347.826000", "185347.828000", "185347.831000", "185347.834000", "185347.836000", "185347.845000", "185347.847000", "185347.850000", "185347.853000", "185347.856000", "185347.859000", "185347.861000", "185347.864000", "185347.867000", "185347.870000", "185347.872000", "185347.875000", "185427.817000", "185427.820000", "185427.823000", "185427.826000", "185427.829000", "185427.832000", "185427.835000", "185427.838000", "185427.840000", "185427.843000", "185427.846000", "185427.849000", "185427.852000", "185427.855000", "185427.858000", "185427.861000", "185427.864000", "185427.867000", "185427.870000", "185427.872000", "185507.818000", "185507.821000", "185507.823000", "185507.826000", "185507.829000", "185507.832000", "185507.835000", "185507.838000", "185507.840000", "185507.843000", "185507.846000", "185507.849000", "185507.851000", "185507.854000", "185507.857000", "185507.860000", "185507.863000", "185507.866000", "185507.869000", "185507.871000", "185547.819000", "185547.822000", "185547.825000", "185547.827000", "185547.830000", "185547.833000", "185547.836000", "185547.839000", "185547.841000", "185547.844000", "185547.847000", "185547.850000", "185547.853000", "185547.856000", "185547.858000", "185547.861000", "185547.864000", "185547.867000", "185547.870000", "185547.872000", "185627.819000", "185627.822000", "185627.824000", "185627.827000", "185627.830000", "185627.845000", "185627.848000", "185627.851000", "185627.853000", "185627.856000", "185627.859000", "185627.862000", "185627.864000", "185627.867000", "185627.870000", "185627.873000", "185627.876000", "185627.879000", "185627.881000", "185627.884000", "185707.817000", "185707.820000", "185707.823000", "185707.826000", "185707.829000", "185707.832000", "185707.834000", "185707.837000", "185707.840000", "185707.843000", "185707.846000", "185707.848000", "185707.851000", "185707.854000", "185707.857000", "185707.860000", "185707.863000", "185707.866000", "185707.868000", "185707.871000", "185747.819000", "185747.822000", "185747.825000", "185747.827000", "185747.830000", "185747.833000", "185747.836000", "185747.838000", "185747.841000", "185747.844000", "185747.847000", "185747.849000", "185747.852000", "185747.855000", "185747.857000", "185747.860000", "185747.863000", "185747.866000", "185747.868000", "185747.871000", "185827.819000", "185827.822000", "185827.825000", "185827.828000", "185827.831000", "185827.833000", "185827.836000", "185827.839000", "185827.842000", "185827.845000", "185827.847000", "185827.850000", "185827.853000", "185827.856000", "185827.859000", "185827.862000", "185827.864000", "185827.867000", "185827.870000", "185827.873000", "185907.819000", "185907.823000", "185907.825000", "185907.828000", "185907.831000", "185907.834000", "185907.837000", "185907.839000", "185907.842000", "185907.845000", "185907.848000", "185907.851000", "185907.854000", "185907.856000", "185907.859000", "185907.862000", "185907.865000", "185907.868000", "185907.870000", "185907.873000", "185944.593000", "185944.596000", "185944.599000", "185944.602000", "185944.605000", "185944.608000", "185944.611000", "185944.613000", "185944.616000", "185944.620000", "185944.625000", "185944.630000", "185944.633000", "185944.636000", "185944.640000", "185944.643000", "185944.646000", "185944.649000", "185944.652000"],
      "InstanceNumber": [1, 2, 3, 4, 5, 6, 7, 8, 9, 10, 11, 12, 13, 14, 15, 16, 17, 18, 19, 20, 21, 22, 23, 24, 25, 26, 27, 28, 29, 30, 31, 32, 33, 34, 35, 36, 37, 38, 39, 40, 41, 42, 43, 44, 45, 46, 47, 48, 49, 50, 51, 52, 53, 54, 55, 56, 57, 58, 59, 60, 61, 62, 63, 64, 65, 66, 67, 68, 69, 70, 71, 72, 73, 74, 75, 76, 77, 78, 79, 80, 81, 82, 83, 84, 85, 86, 87, 88, 89, 90, 91, 92, 93, 94, 95, 96, 97, 98, 99, 100, 101, 102, 103, 104, 105, 106, 107, 108, 109, 110, 111, 112, 113, 114, 115, 116, 117, 118, 119, 120, 121, 122, 123, 124, 125, 126, 127, 128, 129, 130, 131, 132, 133, 134, 135, 136, 137, 138, 139, 140, 141, 142, 143, 144, 145, 146, 147, 148, 149, 150, 151, 152, 153, 154, 155, 156, 157, 158, 159, 160, 161, 162, 163, 164, 165, 166, 167, 168, 169, 170, 171, 172, 173, 174, 175, 176, 177, 178, 179, 180, 181, 182, 183, 184, 185, 186, 187, 188, 189, 190, 191, 192, 193, 194, 195, 196, 197, 198, 199, 200, 201, 202, 203, 204, 205, 206, 207, 208, 209, 210, 211, 212, 213, 214, 215, 216, 217, 218, 219, 220, 221, 222, 223, 224, 225, 226, 227, 228, 229, 230, 231, 232, 233, 234, 235, 236, 237, 238, 239, 240, 241, 242, 243, 244, 245, 246, 247, 248, 249, 250, 251, 252, 253, 254, 255, 256],
      "LargestImagePixelValue": [897, 946, 979, 959, 819, 932, 928, 826, 886, 933, 892, 888, 967, 852, 874, 939, 845, 827, 883, 1072, 1050, 845, 921, 848, 923, 1010, 985, 919, 850, 828, 838, 843, 1003, 886, 1012, 858, 1015, 921, 1042, 890, 905, 931, 859, 846, 909, 882, 1014, 847, 972, 858, 963, 863, 959, 862, 967, 963, 1053, 1161, 861, 879, 886, 875, 1046, 926, 927, 856, 878, 949, 879, 889, 879, 935, 888, 927, 923, 927, 954, 866, 986, 833, 918, 952, 952, 1036, 861, 1011, 921, 897, 1082, 993, 846, 858, 950, 876, 982, 858, 996, 909, 941, 859, 985, 876, 934, 850, 931, 924, 998, 857, 954, 867, 994, 907, 1090, 925, 888, 957, 864, 952, 863, 959, 925, 929, 909, 869, 1036, 976, 874, 845, 865, 857, 904, 931, 927, 986, 857, 1044, 938, 1064, 907, 1055, 993, 966, 1059, 904, 905, 875, 949, 878, 885, 852, 1114, 846, 934, 1003, 842, 968, 864, 973, 1082, 971, 1082, 860, 1029, 905, 1009, 867, 1064, 875, 1008, 1053, 860, 1043, 985, 1103, 954, 890, 943, 897, 964, 932, 901, 986, 865, 885, 867, 987, 971, 1109, 885, 936, 871, 875, 925, 926, 1010, 1040, 1015, 1082, 849, 1088, 841, 1014, 920, 1024, 1025, 895, 875, 1003, 1001, 1082, 866, 885, 868, 868, 945, 1083, 829, 998, 868, 996, 881, 1001, 1038, 1016, 1074, 904, 1093, 919, 1047, 982, 993, 901, 870, 877, 869, 868, 951, 1039, 933, 1069, 866, 1056, 870, 1057, 852, 874, 849, 826, 911, 1075, 1066, 1003, 917, 888, 941, 923],
      "WindowCenter": [482.0, 481.0, 481.0, 480.0, 479.0, 480.0, 480.0, 479.0, 480.0, 480.0, 480.0, 481.0, 480.0, 480.0, 480.0, 481.0, 479.0, 479.0, 481.0, 482.0, 482.0, 479.0, 480.0, 479.0, 482.0, 485.0, 482.0, 481.0, 480.0, 480.0, 481.0, 482.0, 483.0, 482.0, 483.0, 481.0, 483.0, 481.0, 483.0, 481.0, 481.0, 481.0, 481.0, 481.0, 483.0, 483.0, 484.0, 482.0, 484.0, 481.0, 482.0, 481.0, 482.0, 481.0, 482.0, 484.0, 485.0, 485.0, 481.0, 481.0, 481.0, 482.0, 483.0, 482.0, 482.0, 482.0, 482.0, 482.0, 481.0, 481.0, 483.0, 484.0, 482.0, 482.0, 483.0, 483.0, 484.0, 482.0, 483.0, 481.0, 482.0, 482.0, 483.0, 484.0, 482.0, 483.0, 482.0, 483.0, 486.0, 483.0, 480.0, 480.0, 481.0, 480.0, 481.0, 480.0, 483.0, 482.0, 483.0, 482.0, 484.0, 482.0, 483.0, 482.0, 482.0, 483.0, 484.0, 483.0, 483.0, 482.0, 483.0, 482.0, 484.0, 482.0, 481.0, 482.0, 481.0, 482.0, 481.0, 482.0, 482.0, 482.0, 482.0, 482.0, 484.0, 483.0, 481.0, 479.0, 480.0, 481.0, 482.0, 482.0, 483.0, 484.0, 483.0, 486.0, 483.0, 485.0, 482.0, 484.0, 483.0, 483.0, 484.0, 482.0, 483.0, 482.0, 483.0, 482.0, 483.0, 482.0, 485.0, 481.0, 482.0, 483.0, 480.0, 482.0, 481.0, 483.0, 484.0, 482.0, 483.0, 481.0, 483.0, 482.0, 484.0, 482.0, 487.0, 483.0, 484.0, 484.0, 482.0, 484.0, 484.0, 485.0, 483.0, 482.0, 483.0, 483.0, 484.0, 483.0, 484.0, 484.0, 482.0, 482.0, 482.0, 485.0, 485.0, 486.0, 484.0, 484.0, 483.0, 483.0, 483.0, 483.0, 484.0, 484.0, 483.0, 484.0, 481.0, 483.0, 481.0, 483.0, 481.0, 482.0, 483.0, 482.0, 483.0, 485.0, 484.0, 483.0, 481.0, 481.0, 481.0, 483.0, 483.0, 483.0, 479.0, 481.0, 479.0, 482.0, 481.0, 483.0, 483.0, 483.0, 483.0, 481.0, 483.0, 481.0, 483.0, 482.0, 482.0, 481.0, 481.0, 481.0, 481.0, 481.0, 482.0, 483.0, 482.0, 483.0, 481.0, 482.0, 481.0, 483.0, 481.0, 482.0, 481.0, 482.0, 484.0, 486.0, 484.0, 484.0, 483.0, 483.0, 484.0, 484.0],
      "WindowWidth": [1005.0, 1002.0, 1001.0, 1000.0, 999.0, 1000.0, 1000.0, 997.0, 999.0, 1000.0, 1000.0, 1001.0, 1000.0, 999.0, 999.0, 1001.0, 999.0, 999.0, 1002.0, 1003.0, 1003.0, 999.0, 1000.0, 998.0, 1003.0, 1008.0, 1003.0, 1001.0, 999.0, 1000.0, 1002.0, 1003.0, 1005.0, 1003.0, 1005.0, 1002.0, 1005.0, 1002.0, 1005.0, 1001.0, 1002.0, 1002.0, 1001.0, 1001.0, 1004.0, 1005.0, 1007.0, 1004.0, 1006.0, 1002.0, 1004.0, 1002.0, 1003.0, 1001.0, 1003.0, 1006.0, 1008.0, 1008.0, 1002.0, 1002.0, 1002.0, 1003.0, 1005.0, 1003.0, 1004.0, 1004.0, 1004.0, 1003.0, 1001.0, 1002.0, 1005.0, 1006.0, 1004.0, 1004.0, 1005.0, 1005.0, 1007.0, 1004.0, 1006.0, 1002.0, 1004.0, 1004.0, 1004.0, 1007.0, 1004.0, 1006.0, 1003.0, 1005.0, 1010.0, 1005.0, 999.0, 999.0, 1000.0, 999.0, 1002.0, 1000.0, 1004.0, 1003.0, 1005.0, 1004.0, 1006.0, 1003.0, 1005.0, 1003.0, 1004.0, 1005.0, 1007.0, 1005.0, 1005.0, 1003.0, 1006.0, 1004.0, 1006.0, 1003.0, 1002.0, 1004.0, 1002.0, 1003.0, 1001.0, 1003.0, 1003.0, 1003.0, 1003.0, 1003.0, 1007.0, 1005.0, 1001.0, 999.0, 999.0, 1001.0, 1003.0, 1004.0, 1004.0, 1007.0, 1005.0, 1009.0, 1006.0, 1008.0, 1004.0, 1006.0, 1005.0, 1004.0, 1006.0, 1003.0, 1005.0, 1004.0, 1005.0, 1003.0, 1005.0, 1004.0, 1008.0, 1002.0, 1003.0, 1004.0, 1000.0, 1002.0, 1001.0, 1004.0, 1006.0, 1004.0, 1005.0, 1001.0, 1005.0, 1003.0, 1006.0, 1004.0, 1012.0, 1005.0, 1007.0, 1007.0, 1003.0, 1007.0, 1006.0, 1008.0, 1005.0, 1003.0, 1005.0, 1005.0, 1007.0, 1005.0, 1006.0, 1006.0, 1004.0, 1004.0, 1004.0, 1008.0, 1009.0, 1011.0, 1006.0, 1007.0, 1005.0, 1005.0, 1005.0, 1004.0, 1007.0, 1007.0, 1006.0, 1006.0, 1002.0, 1005.0, 1001.0, 1004.0, 1001.0, 1003.0, 1005.0, 1003.0, 1005.0, 1009.0, 1006.0, 1005.0, 1002.0, 1002.0, 1002.0, 1006.0, 1005.0, 1005.0, 999.0, 1001.0, 999.0, 1002.0, 1001.0, 1005.0, 1005.0, 1004.0, 1005.0, 1002.0, 1005.0, 1000.0, 1005.0, 1004.0, 1004.0, 1002.0, 1002.0, 1001.0, 1001.0, 1001.0, 1003.0, 1004.0, 1002.0, 1004.0, 1001.0, 1003.0, 1001.0, 1005.0, 1002.0, 1002.0, 1002.0, 1004.0, 1007.0, 1009.0, 1007.0, 1006.0, 1005.0, 1005.0, 1007.0, 1007.0]
    },
    "slices": {}
  }
}