{
  "AcquisitionMatrixPE": 64,
  "AcquisitionNumber": 1,
  "AcquisitionTime": "19:29:13.742500",
  "BandwidthPerPixelPhaseEncode": 40.064,
  "BaseResolution": 64,
  "BodyPartExamined": "BRAIN",
  "ConsistencyInfo": "N4_VD13D_LATEST_20130810",
  "ConversionSoftware": "dcm2niix",
  "ConversionSoftwareVersion": "v1.0.20191031",
  "DerivedVendorReportedEchoSpacing": 0.000780002,
  "DeviceSerialNumber": "67007",
  "DwellTime": 5.3e-06,
  "EchoTime": 0.03,
  "EchoTrainLength": 31,
  "EffectiveEchoSpacing": 0.000390001,
  "FlipAngle": 75,
  "ImageOrientationPatientDICOM": [0.999133, 0.0414006, 0.00450159, -0.0401293, 0.98603, -0.161662],
  "ImageType": [
    "ORIGINAL",
    "PRIMARY",
    "M",
    "ND",
    "NORM",
    "MOSAIC"
],
  "ImagingFrequency": 123.211,
  "InPlanePhaseEncodingDirectionDICOM": "ROW",
  "InstitutionAddress": "Perth_Drive_100_London_Ontario_CA_N6A_5K8",
  "InstitutionName": "Robarts_Research_Institute",
  "InstitutionalDepartmentName": "CFMM",
  "MRAcquisitionType": "2D",
  "MagneticFieldStrength": 3,
  "Manufacturer": "Siemens",
  "ManufacturersModelName": "Prisma_fit",
  "Modality": "MR",
  "ParallelReductionFactorInPlane": 2,
  "PartialFourier": 1,
  "PatientPosition": "HFS",
  "PercentPhaseFOV": 100,
  "PhaseEncodingDirection": "i",
  "PhaseEncodingSteps": 63,
  "PhaseResolution": 1,
  "PixelBandwidth": 1475,
  "ProcedureStepDescription": "Owen_Naci",
  "ProtocolName": "Resting_State_light_sed",
  "PulseSequenceDetails": "%SiemensSeq%_ep2d_bold",
  "ReceiveCoilActiveElements": "HEA;HEP",
  "ReceiveCoilName": "Head_32",
  "ReconMatrixPE": 64,
  "RefLinesPE": 24,
  "RepetitionTime": 2,
  "SAR": 0.121103,
  "ScanOptions": "FS",
  "ScanningSequence": "EP",
  "SequenceName": "_epfid2d1_64",
  "SequenceVariant": "SK",
  "SeriesDescription": "Resting_State_light_sed",
  "SeriesNumber": 9,
  "ShimSetting": [5262, -6210, -3765, 402, 28, -118, 122, -6],
  "SliceThickness": 3,
  "SliceTiming": [1.92, 1.86, 1.8, 1.74, 1.68, 1.62, 1.56, 1.5, 1.44, 1.38, 1.32, 1.26, 1.2, 1.14, 1.08, 1.02, 0.96, 0.9, 0.84, 0.78, 0.72, 0.66, 0.6, 0.54, 0.48, 0.42, 0.36, 0.3, 0.24, 0.18, 0.12, 0.06, 0],
  "SoftwareVersions": "syngo_MR_D13D",
  "SpacingBetweenSlices": 3.75,
  "StationName": "AWP67007",
  "TaskName": "restlight",
  "TotalReadoutTime": 0.0245701,
  "TxRefAmp": 322.304,
  "dcmmeta_affine": [
    [-2.9973974227905273, -0.12038791924715042, 0.04174353927373886, 101.47430419921875],
    [-0.12420179694890976, 2.958089828491211, -0.605029284954071, -64.37215423583984],
    [0.01350477896630764, 0.4849861264228821, 3.700634479522705, -41.04717254638672],
    [0.0, 0.0, 0.0, 1.0]
],
  "dcmmeta_reorient_transform": [
    [0.0, -1.0, 0.0, 63.0],
    [1.0, 0.0, 0.0, 0.0],
    [0.0, 0.0, 1.0, 0.0],
    [0.0, 0.0, 0.0, 1.0]
],
  "dcmmeta_shape": [64, 64, 33, 256],
  "dcmmeta_slice_dim": 2,
  "dcmmeta_version": 0.6,
  "global": {
    "const": {
      "AcquisitionMatrix": [0, 64, 64, 0],
      "AngioFlag": "N",
      "BitsAllocated": 16,
      "BitsStored": 12,
      "BodyPartExamined": "BRAIN",
      "Columns": 384,
      "EchoNumbers": 1,
      "EchoTime": 30.0,
      "EchoTrainLength": 31,
      "FlipAngle": 75.0,
      "HighBit": 11,
      "ImageOrientationPatient": [0.99913248669789, 0.04140060004933, 0.0045015931021, -0.0401293067298, 0.9860299298234, -0.1616620432688],
      "ImagePositionPatient": [-554.21138984718, -615.15415314492, 64.943971145387],
      "ImageType": [
        "ORIGINAL",
        "PRIMARY",
        "M",
        "ND",
        "NORM",
        "MOSAIC"
],
      "ImagedNucleus": "1H",
      "ImagingFrequency": 123.211183,
      "InPlanePhaseEncodingDirection": "ROW",
      "MRAcquisitionType": "2D",
      "MagneticFieldStrength": 3.0,
      "Manufacturer": "SIEMENS",
      "ManufacturerModelName": "Prisma_fit",
      "Modality": "MR",
      "NumberOfAverages": 1.0,
      "NumberOfPhaseEncodingSteps": 63,
      "PercentPhaseFieldOfView": 100.0,
      "PercentSampling": 100.0,
      "PerformedProcedureStepStartTime": "183209.631000",
      "PhotometricInterpretation": "MONOCHROME2",
      "PixelBandwidth": 1475.0,
      "PixelRepresentation": 0,
      "PixelSpacing": [3.0, 3.0],
      "ProtocolName": "Resting State_light sed",
      "RepetitionTime": 2000.0,
      "Rows": 384,
      "SAR": 0.12110299955505,
      "SamplesPerPixel": 1,
      "ScanOptions": "FS",
      "ScanningSequence": "EP",
      "SequenceName": "*epfid2d1_64",
      "SequenceVariant": "SK",
      "SeriesDescription": "Resting State_light sed",
      "SeriesNumber": 9,
      "SeriesTime": "193002.533000",
      "SliceLocation": -28.991371898816,
      "SliceThickness": 3.0,
      "SmallestImagePixelValue": 0,
      "SoftwareVersions": "syngo MR D13D",
      "SpacingBetweenSlices": 3.7499999177386,
      "SpecificCharacterSet": "ISO_IR 100",
      "StudyID": "1",
      "StudyTime": "183209.576000",
      "TimeOfLastCalibration": ["123723.000000", "123723.000000"],
      "TransmitCoilName": "Body",
      "VariableFlipAngleFlag": "N",
      "WindowCenterWidthExplanation": "Algo1",
      "dBdt": 0.0},
    "slices": {}
  },
  "time": {
    "samples": {
      "AcquisitionNumber": [1, 2, 3, 4, 5, 6, 7, 8, 9, 10, 11, 12, 13, 14, 15, 16, 17, 18, 19, 20, 21, 22, 23, 24, 25, 26, 27, 28, 29, 30, 31, 32, 33, 34, 35, 36, 37, 38, 39, 40, 41, 42, 43, 44, 45, 46, 47, 48, 49, 50, 51, 52, 53, 54, 55, 56, 57, 58, 59, 60, 61, 62, 63, 64, 65, 66, 67, 68, 69, 70, 71, 72, 73, 74, 75, 76, 77, 78, 79, 80, 81, 82, 83, 84, 85, 86, 87, 88, 89, 90, 91, 92, 93, 94, 95, 96, 97, 98, 99, 100, 101, 102, 103, 104, 105, 106, 107, 108, 109, 110, 111, 112, 113, 114, 115, 116, 117, 118, 119, 120, 121, 122, 123, 124, 125, 126, 127, 128, 129, 130, 131, 132, 133, 134, 135, 136, 137, 138, 139, 140, 141, 142, 143, 144, 145, 146, 147, 148, 149, 150, 151, 152, 153, 154, 155, 156, 157, 158, 159, 160, 161, 162, 163, 164, 165, 166, 167, 168, 169, 170, 171, 172, 173, 174, 175, 176, 177, 178, 179, 180, 181, 182, 183, 184, 185, 186, 187, 188, 189, 190, 191, 192, 193, 194, 195, 196, 197, 198, 199, 200, 201, 202, 203, 204, 205, 206, 207, 208, 209, 210, 211, 212, 213, 214, 215, 216, 217, 218, 219, 220, 221, 222, 223, 224, 225, 226, 227, 228, 229, 230, 231, 232, 233, 234, 235, 236, 237, 238, 239, 240, 241, 242, 243, 244, 245, 246, 247, 248, 249, 250, 251, 252, 253, 254, 255, 256],
      "AcquisitionTime": ["192913.742500", "192915.742500", "192917.742500", "192919.742500", "192921.742500", "192923.742500", "192925.742500", "192927.742500", "192929.742500", "192931.742500", "192933.742500", "192935.742500", "192937.742500", "192939.742500", "192941.742500", "192943.742500", "192945.742500", "192947.742500", "192949.742500", "192951.742500", "192953.742500", "192955.742500", "192957.742500", "192959.742500", "193001.742500", "193003.742500", "193005.742500", "193007.742500", "193009.742500", "193011.742500", "193013.742500", "193015.742500", "193017.742500", "193019.742500", "193021.742500", "193023.742500", "193025.742500", "193027.742500", "193029.742500", "193031.742500", "193033.742500", "193035.742500", "193037.742500", "193039.742500", "193041.742500", "193043.742500", "193045.742500", "193047.742500", "193049.742500", "193051.742500", "193053.742500", "193055.742500", "193057.742500", "193059.742500", "193101.742500", "193103.742500", "193105.742500", "193107.742500", "193109.742500", "193111.742500", "193113.742500", "193115.742500", "193117.742500", "193119.742500", "193121.742500", "193123.742500", "193125.742500", "193127.742500", "193129.742500", "193131.742500", "193133.742500", "193135.742500", "193137.742500", "193139.742500", "193141.742500", "193143.742500", "193145.742500", "193147.742500", "193149.742500", "193151.742500", "193153.742500", "193155.742500", "193157.742500", "193159.742500", "193201.742500", "193203.742500", "193205.742500", "193207.742500", "193209.742500", "193211.742500", "193213.742500", "193215.742500", "193217.742500", "193219.742500", "193221.742500", "193223.742500", "193225.742500", "193227.742500", "193229.742500", "193231.742500", "193233.742500", "193235.742500", "193237.742500", "193239.742500", "193241.742500", "193243.742500", "193245.742500", "193247.742500", "193249.742500", "193251.742500", "193253.742500", "193255.742500", "193257.742500", "193259.742500", "193301.742500", "193303.742500", "193305.742500", "193307.742500", "193309.742500", "193311.742500", "193313.742500", "193315.742500", "193317.742500", "193319.742500", "193321.742500", "193323.742500", "193325.742500", "193327.742500", "193329.742500", "193331.742500", "193333.742500", "193335.742500", "193337.742500", "193339.742500", "193341.742500", "193343.745000", "193345.745000", "193347.745000", "193349.745000", "193351.745000", "193353.745000", "193355.745000", "193357.745000", "193359.745000", "193401.745000", "193403.745000", "193405.745000", "193407.745000", "193409.745000", "193411.745000", "193413.745000", "193415.745000", "193417.745000", "193419.745000", "193421.745000", "193423.745000", "193425.745000", "193427.745000", "193429.745000", "193431.745000", "193433.745000", "193435.745000", "193437.745000", "193439.745000", "193441.745000", "193443.745000", "193445.745000", "193447.745000", "193449.745000", "193451.745000", "193453.745000", "193455.745000", "193457.745000", "193459.745000", "193501.745000", "193503.745000", "193505.745000", "193507.745000", "193509.745000", "193511.745000", "193513.745000", "193515.745000", "193517.745000", "193519.745000", "193521.745000", "193523.745000", "193525.745000", "193527.745000", "193529.745000", "193531.745000", "193533.745000", "193535.745000", "193537.745000", "193539.745000", "193541.745000", "193543.745000", "193545.745000", "193547.745000", "193549.745000", "193551.745000", "193553.745000", "193555.745000", "193557.745000", "193559.745000", "193601.745000", "193603.745000", "193605.745000", "193607.745000", "193609.745000", "193611.745000", "193613.745000", "193615.745000", "193617.745000", "193619.745000", "193621.745000", "193623.745000", "193625.745000", "193627.745000", "193629.745000", "193631.745000", "193633.745000", "193635.745000", "193637.745000", "193639.745000", "193641.745000", "193643.745000", "193645.745000", "193647.745000", "193649.745000", "193651.745000", "193653.745000", "193655.745000", "193657.745000", "193659.745000", "193701.745000", "193703.745000", "193705.745000", "193707.745000", "193709.745000", "193711.745000", "193713.745000", "193715.745000", "193717.745000", "193719.745000", "193721.745000", "193723.745000", "193725.745000", "193727.745000", "193729.745000", "193731.745000", "193733.745000", "193735.745000", "193737.745000", "193739.745000", "193741.745000", "193743.745000"],
      "ContentTime": ["193002.538000", "193002.542000", "193002.545000", "193002.548000", "193002.551000", "193002.554000", "193002.556000", "193002.559000", "193002.562000", "193002.565000", "193002.568000", "193002.571000", "193002.574000", "193002.576000", "193002.579000", "193002.582000", "193002.585000", "193002.588000", "193002.590000", "193002.593000", "193002.596000", "193002.599000", "193002.602000", "193002.605000", "193002.608000", "193042.530000", "193042.533000", "193042.536000", "193042.539000", "193042.542000", "193042.545000", "193042.547000", "193042.550000", "193042.553000", "193042.556000", "193042.559000", "193042.562000", "193042.565000", "193042.567000", "193042.570000", "193042.573000", "193042.576000", "193042.579000", "193042.582000", "193042.584000", "193122.531000", "193122.534000", "193122.537000", "193122.540000", "193122.543000", "193122.545000", "193122.548000", "193122.551000", "193122.554000", "193122.557000", "193122.560000", "193122.562000", "193122.565000", "193122.568000", "193122.571000", "193122.573000", "193122.576000", "193122.579000", "193122.582000", "193122.585000", "193202.530000", "193202.534000", "193202.537000", "193202.539000", "193202.542000", "193202.545000", "193202.548000", "193202.551000", "193202.554000", "193202.557000", "193202.559000", "193202.562000", "193202.565000", "193202.568000", "193202.570000", "193202.573000", "193202.575000", "193202.578000", "193202.581000", "193202.584000", "193242.530000", "193242.533000", "193242.536000", "193242.539000", "193242.542000", "193242.545000", "193242.548000", "193242.551000", "193242.553000", "193242.556000", "193242.559000", "193242.562000", "193242.565000", "193242.568000", "193242.571000", "193242.573000", "193242.576000", "193242.579000", "193242.582000", "193242.585000", "193322.530000", "193322.534000", "193322.536000", "193322.539000", "193322.542000", "193322.545000", "193322.548000", "193322.551000", "193322.554000", "193322.557000", "193322.559000", "193322.562000", "193322.565000", "193322.568000", "193322.571000", "193322.574000", "193322.576000", "193322.579000", "193322.582000", "193322.585000", "193402.530000", "193402.534000", "193402.536000", "193402.541000", "193402.544000", "193402.552000", "193402.555000", "193402.557000", "193402.560000", "193402.563000", "193402.566000", "193402.569000", "193402.572000", "193402.575000", "193402.578000", "193402.581000", "193402.584000", "193402.586000", "193402.589000", "193402.592000", "193442.529000", "193442.532000", "193442.535000", "193442.538000", "193442.541000", "193442.544000", "193442.547000", "193442.549000", "193442.552000", "193442.555000", "193442.558000", "193442.561000", "193442.564000", "193442.567000", "193442.570000", "193442.572000", "193442.575000", "193442.578000", "193442.581000", "193442.584000", "193522.528000", "193522.531000", "193522.534000", "193522.537000", "193522.540000", "193522.543000", "193522.546000", "193522.549000", "193522.551000", "193522.554000", "193522.557000", "193522.560000", "193522.563000", "193522.566000", "193522.568000", "193522.571000", "193522.574000", "193522.577000", "193522.580000", "193522.583000", "193602.529000", "193602.532000", "193602.535000", "193602.538000", "193602.541000", "193602.543000", "193602.546000", "193602.549000", "193602.552000", "193602.555000", "193602.558000", "193602.561000", "193602.564000", "193602.566000", "193602.569000", "193602.572000", "193602.575000", "193602.578000", "193602.581000", "193602.583000", "193642.530000", "193642.533000", "193642.536000", "193642.539000", "193642.541000", "193642.544000", "193642.547000", "193642.550000", "193642.553000", "193642.556000", "193642.559000", "193642.561000", "193642.564000", "193642.567000", "193642.570000", "193642.573000", "193642.575000", "193642.578000", "193642.581000", "193642.583000", "193722.529000", "193722.532000", "193722.535000", "193722.537000", "193722.540000", "193722.543000", "193722.546000", "193722.549000", "193722.552000", "193722.555000", "193722.558000", "193722.560000", "193722.563000", "193722.566000", "193722.569000", "193722.571000", "193722.574000", "193722.577000", "193722.580000", "193722.582000", "193744.018000", "193744.021000", "193744.025000", "193744.028000", "193744.030000", "193744.033000", "193744.036000", "193744.039000", "193744.041000", "193744.044000", "193744.047000"],
      "InstanceCreationTime": ["193002.538000", "193002.542000", "193002.545000", "193002.548000", "193002.551000", "193002.554000", "193002.556000", "193002.559000", "193002.562000", "193002.565000", "193002.568000", "193002.571000", "193002.574000", "193002.576000", "193002.579000", "193002.582000", "193002.585000", "193002.588000", "193002.590000", "193002.593000", "193002.596000", "193002.599000", "193002.602000", "193002.605000", "193002.608000", "193042.530000", "193042.533000", "193042.536000", "193042.539000", "193042.542000", "193042.545000", "193042.547000", "193042.550000", "193042.553000", "193042.556000", "193042.559000", "193042.562000", "193042.565000", "193042.567000", "193042.570000", "193042.573000", "193042.576000", "193042.579000", "193042.582000", "193042.584000", "193122.531000", "193122.534000", "193122.537000", "193122.540000", "193122.543000", "193122.545000", "193122.548000", "193122.551000", "193122.554000", "193122.557000", "193122.560000", "193122.562000", "193122.565000", "193122.568000", "193122.571000", "193122.573000", "193122.576000", "193122.579000", "193122.582000", "193122.585000", "193202.530000", "193202.534000", "193202.537000", "193202.539000", "193202.542000", "193202.545000", "193202.548000", "193202.551000", "193202.554000", "193202.557000", "193202.559000", "193202.562000", "193202.565000", "193202.568000", "193202.570000", "193202.573000", "193202.575000", "193202.578000", "193202.581000", "193202.584000", "193242.530000", "193242.533000", "193242.536000", "193242.539000", "193242.542000", "193242.545000", "193242.548000", "193242.551000", "193242.553000", "193242.556000", "193242.559000", "193242.562000", "193242.565000", "193242.568000", "193242.571000", "193242.573000", "193242.576000", "193242.579000", "193242.582000", "193242.585000", "193322.530000", "193322.534000", "193322.536000", "193322.539000", "193322.542000", "193322.545000", "193322.548000", "193322.551000", "193322.554000", "193322.557000", "193322.559000", "193322.562000", "193322.565000", "193322.568000", "193322.571000", "193322.574000", "193322.576000", "193322.579000", "193322.582000", "193322.585000", "193402.530000", "193402.534000", "193402.536000", "193402.541000", "193402.544000", "193402.552000", "193402.555000", "193402.557000", "193402.560000", "193402.563000", "193402.566000", "193402.569000", "193402.572000", "193402.575000", "193402.578000", "193402.581000", "193402.584000", "193402.586000", "193402.589000", "193402.592000", "193442.529000", "193442.532000", "193442.535000", "193442.538000", "193442.541000", "193442.544000", "193442.547000", "193442.549000", "193442.552000", "193442.555000", "193442.558000", "193442.561000", "193442.564000", "193442.567000", "193442.570000", "193442.572000", "193442.575000", "193442.578000", "193442.581000", "193442.584000", "193522.528000", "193522.531000", "193522.534000", "193522.537000", "193522.540000", "193522.543000", "193522.546000", "193522.549000", "193522.551000", "193522.554000", "193522.557000", "193522.560000", "193522.563000", "193522.566000", "193522.568000", "193522.571000", "193522.574000", "193522.577000", "193522.580000", "193522.583000", "193602.529000", "193602.532000", "193602.535000", "193602.538000", "193602.541000", "193602.543000", "193602.546000", "193602.549000", "193602.552000", "193602.555000", "193602.558000", "193602.561000", "193602.564000", "193602.566000", "193602.569000", "193602.572000", "193602.575000", "193602.578000", "193602.581000", "193602.583000", "193642.530000", "193642.533000", "193642.536000", "193642.539000", "193642.541000", "193642.544000", "193642.547000", "193642.550000", "193642.553000", "193642.556000", "193642.559000", "193642.561000", "193642.564000", "193642.567000", "193642.570000", "193642.573000", "193642.575000", "193642.578000", "193642.581000", "193642.583000", "193722.529000", "193722.532000", "193722.535000", "193722.537000", "193722.540000", "193722.543000", "193722.546000", "193722.549000", "193722.552000", "193722.555000", "193722.558000", "193722.560000", "193722.563000", "193722.566000", "193722.569000", "193722.571000", "193722.574000", "193722.577000", "193722.580000", "193722.582000", "193744.018000", "193744.021000", "193744.025000", "193744.028000", "193744.030000", "193744.033000", "193744.036000", "193744.039000", "193744.041000", "193744.044000", "193744.047000"],
      "InstanceNumber": [1, 2, 3, 4, 5, 6, 7, 8, 9, 10, 11, 12, 13, 14, 15, 16, 17, 18, 19, 20, 21, 22, 23, 24, 25, 26, 27, 28, 29, 30, 31, 32, 33, 34, 35, 36, 37, 38, 39, 40, 41, 42, 43, 44, 45, 46, 47, 48, 49, 50, 51, 52, 53, 54, 55, 56, 57, 58, 59, 60, 61, 62, 63, 64, 65, 66, 67, 68, 69, 70, 71, 72, 73, 74, 75, 76, 77, 78, 79, 80, 81, 82, 83, 84, 85, 86, 87, 88, 89, 90, 91, 92, 93, 94, 95, 96, 97, 98, 99, 100, 101, 102, 103, 104, 105, 106, 107, 108, 109, 110, 111, 112, 113, 114, 115, 116, 117, 118, 119, 120, 121, 122, 123, 124, 125, 126, 127, 128, 129, 130, 131, 132, 133, 134, 135, 136, 137, 138, 139, 140, 141, 142, 143, 144, 145, 146, 147, 148, 149, 150, 151, 152, 153, 154, 155, 156, 157, 158, 159, 160, 161, 162, 163, 164, 165, 166, 167, 168, 169, 170, 171, 172, 173, 174, 175, 176, 177, 178, 179, 180, 181, 182, 183, 184, 185, 186, 187, 188, 189, 190, 191, 192, 193, 194, 195, 196, 197, 198, 199, 200, 201, 202, 203, 204, 205, 206, 207, 208, 209, 210, 211, 212, 213, 214, 215, 216, 217, 218, 219, 220, 221, 222, 223, 224, 225, 226, 227, 228, 229, 230, 231, 232, 233, 234, 235, 236, 237, 238, 239, 240, 241, 242, 243, 244, 245, 246, 247, 248, 249, 250, 251, 252, 253, 254, 255, 256],
      "LargestImagePixelValue": [1248, 916, 984, 884, 948, 917, 933, 949, 922, 956, 910, 908, 917, 905, 945, 992, 911, 1005, 877, 931, 1035, 891, 890, 888, 1030, 1011, 916, 1128, 964, 972, 886, 1030, 897, 881, 941, 878, 928, 955, 923, 907, 1009, 869, 906, 1003, 958, 1001, 987, 863, 895, 985, 891, 881, 1010, 884, 959, 974, 985, 940, 1011, 906, 906, 1016, 959, 974, 1004, 877, 858, 954, 871, 890, 870, 885, 935, 875, 1010, 975, 1126, 915, 864, 889, 880, 905, 973, 926, 1004, 1012, 893, 974, 998, 881, 954, 1000, 1010, 1031, 978, 910, 939, 875, 943, 1011, 972, 1062, 1009, 934, 1040, 874, 865, 1169, 892, 930, 903, 858, 950, 1006, 978, 914, 932, 909, 873, 959, 936, 887, 980, 874, 941, 958, 919, 919, 870, 860, 880, 999, 970, 896, 1000, 888, 971, 978, 953, 959, 981, 881, 953, 958, 875, 899, 898, 882, 1059, 1087, 927, 867, 1035, 1038, 954, 857, 864, 898, 912, 863, 1020, 938, 956, 947, 865, 884, 878, 992, 1007, 1024, 857, 876, 878, 939, 885, 896, 1011, 903, 872, 875, 927, 909, 996, 1123, 929, 945, 910, 866, 983, 1011, 865, 884, 878, 881, 891, 901, 859, 1007, 908, 1024, 1106, 1089, 883, 859, 865, 1016, 985, 1055, 1095, 947, 891, 926, 887, 895, 946, 873, 907, 896, 930, 865, 904, 1078, 886, 934, 859, 943, 1054, 1023, 879, 900, 897, 976, 1081, 873, 895, 886, 940, 864, 919, 1068, 1099, 918, 1024, 951, 1062, 1023, 883, 944, 936, 915, 975, 869, 993, 969, 906, 874],
      "WindowCenter": [490.0, 485.0, 484.0, 481.0, 481.0, 480.0, 482.0, 482.0, 482.0, 483.0, 482.0, 482.0, 483.0, 483.0, 484.0, 485.0, 485.0, 486.0, 484.0, 486.0, 486.0, 485.0, 485.0, 484.0, 486.0, 492.0, 490.0, 489.0, 486.0, 486.0, 484.0, 487.0, 485.0, 484.0, 485.0, 483.0, 484.0, 485.0, 485.0, 484.0, 486.0, 484.0, 485.0, 487.0, 486.0, 486.0, 485.0, 484.0, 485.0, 486.0, 485.0, 485.0, 486.0, 485.0, 486.0, 487.0, 486.0, 486.0, 486.0, 485.0, 484.0, 485.0, 485.0, 485.0, 485.0, 483.0, 483.0, 484.0, 484.0, 484.0, 483.0, 483.0, 484.0, 484.0, 486.0, 485.0, 487.0, 485.0, 483.0, 484.0, 484.0, 485.0, 486.0, 486.0, 486.0, 486.0, 485.0, 486.0, 486.0, 485.0, 487.0, 487.0, 487.0, 487.0, 487.0, 486.0, 486.0, 485.0, 486.0, 487.0, 487.0, 487.0, 485.0, 485.0, 486.0, 483.0, 485.0, 489.0, 486.0, 486.0, 484.0, 483.0, 485.0, 486.0, 484.0, 484.0, 484.0, 484.0, 484.0, 485.0, 485.0, 485.0, 486.0, 484.0, 485.0, 485.0, 484.0, 484.0, 483.0, 484.0, 485.0, 487.0, 486.0, 485.0, 486.0, 485.0, 487.0, 487.0, 486.0, 485.0, 485.0, 484.0, 486.0, 486.0, 484.0, 484.0, 486.0, 487.0, 489.0, 488.0, 485.0, 484.0, 486.0, 486.0, 485.0, 483.0, 482.0, 483.0, 483.0, 483.0, 485.0, 483.0, 483.0, 483.0, 483.0, 483.0, 484.0, 484.0, 485.0, 485.0, 483.0, 483.0, 483.0, 483.0, 483.0, 483.0, 485.0, 484.0, 485.0, 486.0, 487.0, 487.0, 487.0, 487.0, 484.0, 484.0, 484.0, 484.0, 486.0, 486.0, 484.0, 484.0, 484.0, 484.0, 485.0, 485.0, 485.0, 488.0, 487.0, 488.0, 488.0, 487.0, 485.0, 485.0, 486.0, 487.0, 486.0, 487.0, 487.0, 486.0, 486.0, 487.0, 487.0, 487.0, 486.0, 485.0, 485.0, 486.0, 487.0, 486.0, 487.0, 489.0, 487.0, 487.0, 486.0, 488.0, 489.0, 488.0, 486.0, 486.0, 486.0, 487.0, 489.0, 485.0, 485.0, 485.0, 486.0, 487.0, 488.0, 489.0, 489.0, 487.0, 488.0, 488.0, 488.0, 487.0, 485.0, 486.0, 486.0, 486.0, 486.0, 485.0, 486.0, 487.0, 488.0, 487.0],
      "WindowWidth": [1019.0, 1010.0, 1007.0, 1002.0, 1001.0, 1001.0, 1003.0, 1004.0, 1004.0, 1005.0, 1003.0, 1004.0, 1005.0, 1006.0, 1008.0, 1009.0, 1008.0, 1010.0, 1008.0, 1010.0, 1011.0, 1009.0, 1010.0, 1007.0, 1011.0, 1024.0, 1019.0, 1016.0, 1010.0, 1010.0, 1007.0, 1012.0, 1010.0, 1007.0, 1009.0, 1005.0, 1008.0, 1008.0, 1008.0, 1008.0, 1011.0, 1007.0, 1010.0, 1013.0, 1011.0, 1012.0, 1010.0, 1007.0, 1010.0, 1011.0, 1008.0, 1009.0, 1011.0, 1009.0, 1012.0, 1013.0, 1011.0, 1010.0, 1011.0, 1009.0, 1008.0, 1010.0, 1009.0, 1009.0, 1009.0, 1006.0, 1006.0, 1008.0, 1007.0, 1007.0, 1005.0, 1006.0, 1007.0, 1007.0, 1011.0, 1010.0, 1012.0, 1009.0, 1007.0, 1008.0, 1007.0, 1009.0, 1010.0, 1010.0, 1011.0, 1011.0, 1009.0, 1011.0, 1012.0, 1009.0, 1012.0, 1012.0, 1012.0, 1013.0, 1012.0, 1011.0, 1011.0, 1010.0, 1011.0, 1013.0, 1012.0, 1013.0, 1009.0, 1009.0, 1010.0, 1007.0, 1009.0, 1016.0, 1011.0, 1010.0, 1007.0, 1006.0, 1010.0, 1010.0, 1008.0, 1007.0, 1007.0, 1007.0, 1007.0, 1009.0, 1009.0, 1009.0, 1010.0, 1008.0, 1010.0, 1009.0, 1008.0, 1008.0, 1006.0, 1007.0, 1009.0, 1011.0, 1011.0, 1009.0, 1011.0, 1010.0, 1012.0, 1012.0, 1011.0, 1010.0, 1010.0, 1008.0, 1010.0, 1011.0, 1008.0, 1008.0, 1011.0, 1013.0, 1016.0, 1014.0, 1009.0, 1008.0, 1010.0, 1010.0, 1008.0, 1005.0, 1004.0, 1006.0, 1006.0, 1005.0, 1008.0, 1005.0, 1006.0, 1005.0, 1005.0, 1005.0, 1006.0, 1007.0, 1008.0, 1008.0, 1005.0, 1005.0, 1005.0, 1006.0, 1005.0, 1006.0, 1009.0, 1008.0, 1009.0, 1010.0, 1013.0, 1012.0, 1012.0, 1012.0, 1008.0, 1007.0, 1007.0, 1007.0, 1011.0, 1010.0, 1007.0, 1008.0, 1008.0, 1007.0, 1009.0, 1009.0, 1010.0, 1014.0, 1013.0, 1013.0, 1014.0, 1013.0, 1009.0, 1009.0, 1011.0, 1013.0, 1012.0, 1013.0, 1012.0, 1011.0, 1011.0, 1013.0, 1013.0, 1012.0, 1011.0, 1009.0, 1009.0, 1010.0, 1012.0, 1012.0, 1014.0, 1017.0, 1013.0, 1013.0, 1011.0, 1014.0, 1016.0, 1015.0, 1011.0, 1010.0, 1012.0, 1014.0, 1015.0, 1010.0, 1009.0, 1010.0, 1011.0, 1013.0, 1014.0, 1016.0, 1016.0, 1012.0, 1014.0, 1014.0, 1014.0, 1013.0, 1009.0, 1010.0, 1010.0, 1010.0, 1011.0, 1009.0, 1011.0, 1012.0, 1015.0, 1014.0]
    },
    "slices": {}
  }
}