{
  "AcquisitionMatrixPE": 64,
  "AcquisitionNumber": 1,
  "AcquisitionTime": "19:14:25.732500",
  "BandwidthPerPixelPhaseEncode": 40.064,
  "BaseResolution": 64,
  "BodyPartExamined": "BRAIN",
  "ConsistencyInfo": "N4_VD13D_LATEST_20130810",
  "ConversionSoftware": "dcm2niix",
  "ConversionSoftwareVersion": "v1.0.20191031",
  "DerivedVendorReportedEchoSpacing": 0.000780002,
  "DeviceSerialNumber": "67007",
  "DwellTime": 5.3e-06,
  "EchoTime": 0.03,
  "EchoTrainLength": 31,
  "EffectiveEchoSpacing": 0.000390001,
  "FlipAngle": 75,
  "ImageOrientationPatientDICOM": [0.999918, 0.0125148, 0.00277053, -0.0122169, 0.995918, -0.0894372],
  "ImageType": [
    "ORIGINAL",
    "PRIMARY",
    "M",
    "ND",
    "NORM",
    "MOSAIC"
],
  "ImagingFrequency": 123.211,
  "InPlanePhaseEncodingDirectionDICOM": "ROW",
  "InstitutionAddress": "Perth_Drive_100_London_Ontario_CA_N6A_5K8",
  "InstitutionName": "Robarts_Research_Institute",
  "InstitutionalDepartmentName": "CFMM",
  "MRAcquisitionType": "2D",
  "MagneticFieldStrength": 3,
  "Manufacturer": "Siemens",
  "ManufacturersModelName": "Prisma_fit",
  "Modality": "MR",
  "ParallelReductionFactorInPlane": 2,
  "PartialFourier": 1,
  "PatientPosition": "HFS",
  "PercentPhaseFOV": 100,
  "PhaseEncodingDirection": "i",
  "PhaseEncodingSteps": 63,
  "PhaseResolution": 1,
  "PixelBandwidth": 1475,
  "ProcedureStepDescription": "Owen_Naci",
  "ProtocolName": "Resting_State_DEEP_SED",
  "PulseSequenceDetails": "%SiemensSeq%_ep2d_bold",
  "ReceiveCoilActiveElements": "HEA;HEP",
  "ReceiveCoilName": "Head_32",
  "ReconMatrixPE": 64,
  "RefLinesPE": 24,
  "RepetitionTime": 2,
  "SAR": 0.110914,
  "ScanOptions": "FS",
  "ScanningSequence": "EP",
  "SequenceName": "_epfid2d1_64",
  "SequenceVariant": "SK",
  "SeriesDescription": "Resting_State_DEEP_SED",
  "SeriesNumber": 13,
  "ShimSetting": [5232, -6187, -3725, 402, -34, -48, 164, 39],
  "SliceThickness": 3,
  "SliceTiming": [1.92, 1.86, 1.8, 1.74, 1.68, 1.62, 1.56, 1.5, 1.44, 1.38, 1.32, 1.26, 1.2, 1.14, 1.08, 1.02, 0.96, 0.9, 0.84, 0.78, 0.72, 0.66, 0.6, 0.54, 0.48, 0.42, 0.36, 0.3, 0.24, 0.18, 0.12, 0.06, 0],
  "SoftwareVersions": "syngo_MR_D13D",
  "SpacingBetweenSlices": 3.75,
  "StationName": "AWP67007",
  "TaskName": "rest",
  "TotalReadoutTime": 0.0245701,
  "TxRefAmp": 305.385,
  "dcmmeta_affine": [
    [-2.999753475189209, -0.036650728434324265, 0.014544394798576832, 96.53829193115234],
    [-0.03754435479640961, 2.987752676010132, -0.33523520827293396, -73.544921875],
    [0.008311583660542965, 0.2683117389678955, 3.734957456588745, -15.257863998413086],
    [0.0, 0.0, 0.0, 1.0]
],
  "dcmmeta_reorient_transform": [
    [0.0, -1.0, 0.0, 63.0],
    [1.0, 0.0, 0.0, 0.0],
    [0.0, 0.0, 1.0, 0.0],
    [0.0, 0.0, 0.0, 1.0]
],
  "dcmmeta_shape": [64, 64, 33, 256],
  "dcmmeta_slice_dim": 2,
  "dcmmeta_version": 0.6,
  "global": {
    "const": {
      "AcquisitionMatrix": [0, 64, 64, 0],
      "AngioFlag": "N",
      "BitsAllocated": 16,
      "BitsStored": 12,
      "BodyPartExamined": "BRAIN",
      "Columns": 384,
      "EchoNumbers": 1,
      "EchoTime": 30.0,
      "EchoTrainLength": 31,
      "FlipAngle": 75.0,
      "HighBit": 11,
      "ImageOrientationPatient": [0.99991784879056, 0.0125147850803, 0.00277052782863, -0.0122169090894, 0.99591752959904, -0.0894372482227],
      "ImagePositionPatient": [-568.32574940034, -598.73100236052, 43.245801801932],
      "ImageType": [
        "ORIGINAL",
        "PRIMARY",
        "M",
        "ND",
        "NORM",
        "MOSAIC"
],
      "ImagedNucleus": "1H",
      "ImagingFrequency": 123.210947,
      "InPlanePhaseEncodingDirection": "ROW",
      "MRAcquisitionType": "2D",
      "MagneticFieldStrength": 3.0,
      "Manufacturer": "SIEMENS",
      "ManufacturerModelName": "Prisma_fit",
      "Modality": "MR",
      "NumberOfAverages": 1.0,
      "NumberOfPhaseEncodingSteps": 63,
      "PercentPhaseFieldOfView": 100.0,
      "PercentSampling": 100.0,
      "PerformedProcedureStepStartTime": "174926.300000",
      "PhotometricInterpretation": "MONOCHROME2",
      "PixelBandwidth": 1475.0,
      "PixelRepresentation": 0,
      "PixelSpacing": [3.0, 3.0],
      "ProtocolName": "Resting State_DEEP SED",
      "RepetitionTime": 2000.0,
      "Rows": 384,
      "SAR": 0.11091413656943,
      "SamplesPerPixel": 1,
      "ScanOptions": "FS",
      "ScanningSequence": "EP",
      "SequenceName": "*epfid2d1_64",
      "SequenceVariant": "SK",
      "SeriesDescription": "Resting State_DEEP SED",
      "SeriesNumber": 13,
      "SeriesTime": "191513.748000",
      "SliceLocation": -8.2476085545625,
      "SliceThickness": 3.0,
      "SmallestImagePixelValue": 0,
      "SoftwareVersions": "syngo MR D13D",
      "SpacingBetweenSlices": 3.7500000810215,
      "SpecificCharacterSet": "ISO_IR 100",
      "StudyID": "1",
      "StudyTime": "174926.246000",
      "TimeOfLastCalibration": ["123723.000000", "123723.000000"],
      "TransmitCoilName": "Body",
      "VariableFlipAngleFlag": "N",
      "WindowCenterWidthExplanation": "Algo1",
      "dBdt": 0.0},
    "slices": {}
  },
  "time": {
    "samples": {
      "AcquisitionNumber": [1, 2, 3, 4, 5, 6, 7, 8, 9, 10, 11, 12, 13, 14, 15, 16, 17, 18, 19, 20, 21, 22, 23, 24, 25, 26, 27, 28, 29, 30, 31, 32, 33, 34, 35, 36, 37, 38, 39, 40, 41, 42, 43, 44, 45, 46, 47, 48, 49, 50, 51, 52, 53, 54, 55, 56, 57, 58, 59, 60, 61, 62, 63, 64, 65, 66, 67, 68, 69, 70, 71, 72, 73, 74, 75, 76, 77, 78, 79, 80, 81, 82, 83, 84, 85, 86, 87, 88, 89, 90, 91, 92, 93, 94, 95, 96, 97, 98, 99, 100, 101, 102, 103, 104, 105, 106, 107, 108, 109, 110, 111, 112, 113, 114, 115, 116, 117, 118, 119, 120, 121, 122, 123, 124, 125, 126, 127, 128, 129, 130, 131, 132, 133, 134, 135, 136, 137, 138, 139, 140, 141, 142, 143, 144, 145, 146, 147, 148, 149, 150, 151, 152, 153, 154, 155, 156, 157, 158, 159, 160, 161, 162, 163, 164, 165, 166, 167, 168, 169, 170, 171, 172, 173, 174, 175, 176, 177, 178, 179, 180, 181, 182, 183, 184, 185, 186, 187, 188, 189, 190, 191, 192, 193, 194, 195, 196, 197, 198, 199, 200, 201, 202, 203, 204, 205, 206, 207, 208, 209, 210, 211, 212, 213, 214, 215, 216, 217, 218, 219, 220, 221, 222, 223, 224, 225, 226, 227, 228, 229, 230, 231, 232, 233, 234, 235, 236, 237, 238, 239, 240, 241, 242, 243, 244, 245, 246, 247, 248, 249, 250, 251, 252, 253, 254, 255, 256],
      "AcquisitionTime": ["191425.732500", "191427.732500", "191429.732500", "191431.732500", "191433.732500", "191435.732500", "191437.732500", "191439.732500", "191441.732500", "191443.732500", "191445.732500", "191447.732500", "191449.732500", "191451.732500", "191453.732500", "191455.732500", "191457.732500", "191459.732500", "191501.732500", "191503.732500", "191505.732500", "191507.732500", "191509.732500", "191511.732500", "191513.732500", "191515.732500", "191517.732500", "191519.732500", "191521.732500", "191523.732500", "191525.732500", "191527.732500", "191529.732500", "191531.732500", "191533.732500", "191535.732500", "191537.732500", "191539.732500", "191541.732500", "191543.732500", "191545.732500", "191547.732500", "191549.732500", "191551.732500", "191553.732500", "191555.732500", "191557.732500", "191559.732500", "191601.732500", "191603.732500", "191605.732500", "191607.732500", "191609.732500", "191611.732500", "191613.732500", "191615.732500", "191617.732500", "191619.732500", "191621.732500", "191623.732500", "191625.732500", "191627.732500", "191629.732500", "191631.732500", "191633.732500", "191635.732500", "191637.732500", "191639.732500", "191641.732500", "191643.732500", "191645.732500", "191647.732500", "191649.732500", "191651.732500", "191653.732500", "191655.732500", "191657.732500", "191659.732500", "191701.732500", "191703.732500", "191705.732500", "191707.732500", "191709.732500", "191711.732500", "191713.732500", "191715.732500", "191717.732500", "191719.732500", "191721.732500", "191723.732500", "191725.732500", "191727.732500", "191729.732500", "191731.732500", "191733.732500", "191735.732500", "191737.732500", "191739.732500", "191741.732500", "191743.732500", "191745.732500", "191747.732500", "191749.732500", "191751.732500", "191753.732500", "191755.732500", "191757.732500", "191759.732500", "191801.732500", "191803.732500", "191805.732500", "191807.732500", "191809.732500", "191811.732500", "191813.732500", "191815.732500", "191817.732500", "191819.732500", "191821.732500", "191823.732500", "191825.732500", "191827.732500", "191829.732500", "191831.732500", "191833.732500", "191835.732500", "191837.732500", "191839.732500", "191841.732500", "191843.732500", "191845.732500", "191847.732500", "191849.732500", "191851.732500", "191853.732500", "191855.732500", "191857.732500", "191859.732500", "191901.732500", "191903.732500", "191905.732500", "191907.732500", "191909.732500", "191911.732500", "191913.732500", "191915.732500", "191917.732500", "191919.732500", "191921.732500", "191923.732500", "191925.732500", "191927.732500", "191929.732500", "191931.732500", "191933.732500", "191935.732500", "191937.732500", "191939.732500", "191941.732500", "191943.732500", "191945.732500", "191947.732500", "191949.732500", "191951.732500", "191953.732500", "191955.732500", "191957.732500", "191959.732500", "192001.732500", "192003.732500", "192005.732500", "192007.732500", "192009.732500", "192011.732500", "192013.732500", "192015.732500", "192017.732500", "192019.732500", "192021.732500", "192023.732500", "192025.732500", "192027.732500", "192029.732500", "192031.732500", "192033.732500", "192035.732500", "192037.732500", "192039.732500", "192041.732500", "192043.732500", "192045.732500", "192047.732500", "192049.732500", "192051.732500", "192053.732500", "192055.732500", "192057.732500", "192059.732500", "192101.732500", "192103.732500", "192105.732500", "192107.732500", "192109.732500", "192111.735000", "192113.735000", "192115.735000", "192117.735000", "192119.735000", "192121.735000", "192123.735000", "192125.735000", "192127.735000", "192129.735000", "192131.735000", "192133.735000", "192135.735000", "192137.735000", "192139.735000", "192141.735000", "192143.735000", "192145.735000", "192147.735000", "192149.735000", "192151.735000", "192153.735000", "192155.735000", "192157.735000", "192159.735000", "192201.735000", "192203.735000", "192205.735000", "192207.735000", "192209.735000", "192211.735000", "192213.735000", "192215.735000", "192217.735000", "192219.735000", "192221.735000", "192223.735000", "192225.735000", "192227.735000", "192229.735000", "192231.735000", "192233.735000", "192235.735000", "192237.735000", "192239.735000", "192241.735000", "192243.735000", "192245.735000", "192247.735000", "192249.735000", "192251.735000", "192253.735000", "192255.735000"],
      "ContentTime": ["191513.752000", "191513.756000", "191513.759000", "191513.762000", "191513.765000", "191513.768000", "191513.770000", "191513.773000", "191513.776000", "191513.779000", "191513.782000", "191513.785000", "191513.788000", "191513.791000", "191513.794000", "191513.797000", "191513.799000", "191513.809000", "191513.812000", "191513.814000", "191513.817000", "191513.820000", "191513.823000", "191513.826000", "191553.745000", "191553.748000", "191553.750000", "191553.753000", "191553.757000", "191553.760000", "191553.763000", "191553.766000", "191553.769000", "191553.772000", "191553.774000", "191553.777000", "191553.785000", "191553.788000", "191553.791000", "191553.794000", "191553.797000", "191553.800000", "191553.802000", "191553.805000", "191633.744000", "191633.747000", "191633.750000", "191633.753000", "191633.756000", "191633.759000", "191633.762000", "191633.765000", "191633.768000", "191633.770000", "191633.773000", "191633.776000", "191633.779000", "191633.782000", "191633.785000", "191633.788000", "191633.791000", "191633.794000", "191633.797000", "191633.800000", "191713.746000", "191713.749000", "191713.752000", "191713.754000", "191713.757000", "191713.760000", "191713.763000", "191713.766000", "191713.769000", "191713.772000", "191713.775000", "191713.778000", "191713.781000", "191713.783000", "191713.786000", "191713.789000", "191713.792000", "191713.795000", "191713.798000", "191713.801000", "191753.746000", "191753.750000", "191753.752000", "191753.755000", "191753.758000", "191753.761000", "191753.763000", "191753.766000", "191753.770000", "191753.772000", "191753.775000", "191753.778000", "191753.781000", "191753.783000", "191753.786000", "191753.789000", "191753.792000", "191753.795000", "191753.797000", "191753.800000", "191833.745000", "191833.748000", "191833.751000", "191833.754000", "191833.756000", "191833.759000", "191833.762000", "191833.765000", "191833.768000", "191833.771000", "191833.773000", "191833.776000", "191833.779000", "191833.782000", "191833.785000", "191833.788000", "191833.791000", "191833.794000", "191833.796000", "191833.799000", "191913.746000", "191913.749000", "191913.752000", "191913.755000", "191913.758000", "191913.761000", "191913.764000", "191913.767000", "191913.769000", "191913.772000", "191913.775000", "191913.778000", "191913.781000", "191913.784000", "191913.787000", "191913.790000", "191913.792000", "191913.795000", "191913.798000", "191913.801000", "191953.746000", "191953.749000", "191953.752000", "191953.755000", "191953.757000", "191953.760000", "191953.763000", "191953.765000", "191953.768000", "191953.771000", "191953.774000", "191953.777000", "191953.779000", "191953.782000", "191953.785000", "191953.788000", "191953.791000", "191953.794000", "191953.796000", "191953.799000", "192033.745000", "192033.748000", "192033.751000", "192033.754000", "192033.756000", "192033.759000", "192033.762000", "192033.765000", "192033.768000", "192033.771000", "192033.773000", "192033.776000", "192033.779000", "192033.782000", "192033.785000", "192033.788000", "192033.791000", "192033.793000", "192033.796000", "192033.799000", "192113.745000", "192113.748000", "192113.751000", "192113.754000", "192113.757000", "192113.760000", "192113.763000", "192113.766000", "192113.769000", "192113.771000", "192113.775000", "192113.778000", "192113.781000", "192113.784000", "192113.787000", "192113.789000", "192113.792000", "192113.795000", "192113.798000", "192113.801000", "192153.745000", "192153.748000", "192153.751000", "192153.754000", "192153.757000", "192153.760000", "192153.762000", "192153.765000", "192153.768000", "192153.771000", "192153.774000", "192153.777000", "192153.780000", "192153.783000", "192153.785000", "192153.788000", "192153.791000", "192153.794000", "192153.797000", "192153.800000", "192233.745000", "192233.749000", "192233.751000", "192233.754000", "192233.757000", "192233.760000", "192233.762000", "192233.765000", "192233.768000", "192233.771000", "192233.774000", "192233.777000", "192233.780000", "192233.783000", "192233.786000", "192233.789000", "192233.791000", "192233.794000", "192233.797000", "192233.800000", "192256.647000", "192256.651000", "192256.655000", "192256.658000", "192256.661000", "192256.664000", "192256.667000", "192256.670000", "192256.673000", "192256.675000", "192256.678000", "192256.682000"],
      "InstanceCreationTime": ["191513.752000", "191513.756000", "191513.759000", "191513.762000", "191513.765000", "191513.768000", "191513.770000", "191513.773000", "191513.776000", "191513.779000", "191513.782000", "191513.785000", "191513.788000", "191513.791000", "191513.794000", "191513.797000", "191513.799000", "191513.809000", "191513.812000", "191513.814000", "191513.817000", "191513.820000", "191513.823000", "191513.826000", "191553.745000", "191553.748000", "191553.750000", "191553.753000", "191553.757000", "191553.760000", "191553.763000", "191553.766000", "191553.769000", "191553.772000", "191553.774000", "191553.777000", "191553.785000", "191553.788000", "191553.791000", "191553.794000", "191553.797000", "191553.800000", "191553.802000", "191553.805000", "191633.744000", "191633.747000", "191633.750000", "191633.753000", "191633.756000", "191633.759000", "191633.762000", "191633.765000", "191633.768000", "191633.770000", "191633.773000", "191633.776000", "191633.779000", "191633.782000", "191633.785000", "191633.788000", "191633.791000", "191633.794000", "191633.797000", "191633.800000", "191713.746000", "191713.749000", "191713.752000", "191713.754000", "191713.757000", "191713.760000", "191713.763000", "191713.766000", "191713.769000", "191713.772000", "191713.775000", "191713.778000", "191713.781000", "191713.783000", "191713.786000", "191713.789000", "191713.792000", "191713.795000", "191713.798000", "191713.801000", "191753.746000", "191753.750000", "191753.752000", "191753.755000", "191753.758000", "191753.761000", "191753.763000", "191753.766000", "191753.770000", "191753.772000", "191753.775000", "191753.778000", "191753.781000", "191753.783000", "191753.786000", "191753.789000", "191753.792000", "191753.795000", "191753.797000", "191753.800000", "191833.745000", "191833.748000", "191833.751000", "191833.754000", "191833.756000", "191833.759000", "191833.762000", "191833.765000", "191833.768000", "191833.771000", "191833.773000", "191833.776000", "191833.779000", "191833.782000", "191833.785000", "191833.788000", "191833.791000", "191833.794000", "191833.796000", "191833.799000", "191913.746000", "191913.749000", "191913.752000", "191913.755000", "191913.758000", "191913.761000", "191913.764000", "191913.767000", "191913.769000", "191913.772000", "191913.775000", "191913.778000", "191913.781000", "191913.784000", "191913.787000", "191913.790000", "191913.792000", "191913.795000", "191913.798000", "191913.801000", "191953.746000", "191953.749000", "191953.752000", "191953.755000", "191953.757000", "191953.760000", "191953.763000", "191953.765000", "191953.768000", "191953.771000", "191953.774000", "191953.777000", "191953.779000", "191953.782000", "191953.785000", "191953.788000", "191953.791000", "191953.794000", "191953.796000", "191953.799000", "192033.745000", "192033.748000", "192033.751000", "192033.754000", "192033.756000", "192033.759000", "192033.762000", "192033.765000", "192033.768000", "192033.771000", "192033.773000", "192033.776000", "192033.779000", "192033.782000", "192033.785000", "192033.788000", "192033.791000", "192033.793000", "192033.796000", "192033.799000", "192113.745000", "192113.748000", "192113.751000", "192113.754000", "192113.757000", "192113.760000", "192113.763000", "192113.766000", "192113.769000", "192113.771000", "192113.775000", "192113.778000", "192113.781000", "192113.784000", "192113.787000", "192113.789000", "192113.792000", "192113.795000", "192113.798000", "192113.801000", "192153.745000", "192153.748000", "192153.751000", "192153.754000", "192153.757000", "192153.760000", "192153.762000", "192153.765000", "192153.768000", "192153.771000", "192153.774000", "192153.777000", "192153.780000", "192153.783000", "192153.785000", "192153.788000", "192153.791000", "192153.794000", "192153.797000", "192153.800000", "192233.745000", "192233.749000", "192233.751000", "192233.754000", "192233.757000", "192233.760000", "192233.762000", "192233.765000", "192233.768000", "192233.771000", "192233.774000", "192233.777000", "192233.780000", "192233.783000", "192233.786000", "192233.789000", "192233.791000", "192233.794000", "192233.797000", "192233.800000", "192256.647000", "192256.651000", "192256.655000", "192256.658000", "192256.661000", "192256.664000", "192256.667000", "192256.670000", "192256.673000", "192256.675000", "192256.678000", "192256.682000"],
      "InstanceNumber": [1, 2, 3, 4, 5, 6, 7, 8, 9, 10, 11, 12, 13, 14, 15, 16, 17, 18, 19, 20, 21, 22, 23, 24, 25, 26, 27, 28, 29, 30, 31, 32, 33, 34, 35, 36, 37, 38, 39, 40, 41, 42, 43, 44, 45, 46, 47, 48, 49, 50, 51, 52, 53, 54, 55, 56, 57, 58, 59, 60, 61, 62, 63, 64, 65, 66, 67, 68, 69, 70, 71, 72, 73, 74, 75, 76, 77, 78, 79, 80, 81, 82, 83, 84, 85, 86, 87, 88, 89, 90, 91, 92, 93, 94, 95, 96, 97, 98, 99, 100, 101, 102, 103, 104, 105, 106, 107, 108, 109, 110, 111, 112, 113, 114, 115, 116, 117, 118, 119, 120, 121, 122, 123, 124, 125, 126, 127, 128, 129, 130, 131, 132, 133, 134, 135, 136, 137, 138, 139, 140, 141, 142, 143, 144, 145, 146, 147, 148, 149, 150, 151, 152, 153, 154, 155, 156, 157, 158, 159, 160, 161, 162, 163, 164, 165, 166, 167, 168, 169, 170, 171, 172, 173, 174, 175, 176, 177, 178, 179, 180, 181, 182, 183, 184, 185, 186, 187, 188, 189, 190, 191, 192, 193, 194, 195, 196, 197, 198, 199, 200, 201, 202, 203, 204, 205, 206, 207, 208, 209, 210, 211, 212, 213, 214, 215, 216, 217, 218, 219, 220, 221, 222, 223, 224, 225, 226, 227, 228, 229, 230, 231, 232, 233, 234, 235, 236, 237, 238, 239, 240, 241, 242, 243, 244, 245, 246, 247, 248, 249, 250, 251, 252, 253, 254, 255, 256],
      "LargestImagePixelValue": [1030, 886, 879, 932, 823, 843, 832, 867, 864, 815, 828, 860, 917, 907, 885, 900, 913, 900, 886, 943, 906, 913, 906, 884, 903, 864, 978, 873, 911, 877, 900, 986, 883, 894, 912, 950, 966, 914, 884, 942, 883, 999, 908, 886, 866, 952, 881, 921, 970, 896, 809, 893, 979, 888, 862, 903, 916, 880, 892, 838, 921, 863, 1005, 925, 908, 932, 984, 892, 905, 893, 873, 853, 970, 903, 917, 897, 897, 973, 903, 862, 946, 871, 978, 887, 893, 886, 936, 992, 935, 887, 861, 892, 907, 876, 891, 938, 955, 920, 844, 921, 972, 880, 877, 865, 910, 944, 1006, 894, 874, 873, 947, 894, 872, 916, 937, 936, 885, 878, 867, 972, 868, 921, 913, 902, 992, 894, 887, 877, 988, 918, 920, 941, 995, 909, 906, 899, 899, 979, 945, 921, 939, 899, 948, 914, 918, 959, 910, 954, 892, 881, 888, 881, 973, 901, 895, 971, 872, 843, 834, 913, 984, 881, 876, 887, 894, 973, 908, 908, 931, 991, 896, 895, 904, 971, 868, 841, 917, 965, 895, 899, 865, 951, 949, 918, 902, 895, 973, 895, 871, 876, 1002, 902, 900, 893, 919, 894, 960, 852, 866, 828, 829, 997, 944, 925, 915, 997, 949, 885, 889, 901, 931, 823, 846, 853, 937, 873, 885, 921, 967, 917, 893, 928, 944, 945, 868, 862, 835, 847, 978, 893, 894, 921, 936, 924, 857, 840, 1001, 907, 876, 920, 974, 909, 855, 899, 863, 948, 903, 876, 869, 918, 930, 903, 911, 865, 958, 846],
      "WindowCenter": [466.0, 464.0, 462.0, 463.0, 462.0, 462.0, 464.0, 465.0, 466.0, 465.0, 465.0, 466.0, 467.0, 468.0, 468.0, 467.0, 468.0, 468.0, 468.0, 468.0, 469.0, 469.0, 468.0, 469.0, 469.0, 468.0, 470.0, 469.0, 468.0, 469.0, 468.0, 470.0, 468.0, 468.0, 469.0, 469.0, 470.0, 469.0, 468.0, 469.0, 469.0, 470.0, 467.0, 467.0, 467.0, 468.0, 467.0, 468.0, 468.0, 466.0, 467.0, 468.0, 470.0, 468.0, 467.0, 466.0, 467.0, 467.0, 467.0, 467.0, 469.0, 468.0, 469.0, 468.0, 467.0, 468.0, 467.0, 465.0, 466.0, 466.0, 466.0, 467.0, 468.0, 468.0, 468.0, 467.0, 467.0, 469.0, 467.0, 467.0, 468.0, 467.0, 468.0, 468.0, 468.0, 467.0, 469.0, 469.0, 468.0, 467.0, 466.0, 467.0, 468.0, 467.0, 468.0, 469.0, 469.0, 469.0, 469.0, 469.0, 470.0, 468.0, 468.0, 469.0, 470.0, 470.0, 471.0, 469.0, 467.0, 468.0, 469.0, 468.0, 468.0, 469.0, 468.0, 468.0, 468.0, 467.0, 468.0, 469.0, 468.0, 469.0, 470.0, 469.0, 470.0, 468.0, 468.0, 468.0, 469.0, 468.0, 468.0, 470.0, 469.0, 468.0, 469.0, 468.0, 469.0, 471.0, 469.0, 469.0, 469.0, 468.0, 469.0, 469.0, 469.0, 470.0, 468.0, 469.0, 468.0, 468.0, 468.0, 469.0, 470.0, 469.0, 468.0, 469.0, 468.0, 468.0, 468.0, 470.0, 470.0, 469.0, 470.0, 469.0, 470.0, 471.0, 470.0, 469.0, 470.0, 470.0, 468.0, 469.0, 469.0, 470.0, 468.0, 469.0, 470.0, 470.0, 470.0, 470.0, 469.0, 471.0, 471.0, 470.0, 470.0, 470.0, 471.0, 470.0, 469.0, 469.0, 471.0, 469.0, 470.0, 470.0, 470.0, 471.0, 471.0, 470.0, 471.0, 470.0, 470.0, 473.0, 471.0, 471.0, 471.0, 471.0, 470.0, 470.0, 469.0, 470.0, 470.0, 469.0, 470.0, 471.0, 471.0, 471.0, 471.0, 471.0, 471.0, 471.0, 471.0, 472.0, 472.0, 471.0, 470.0, 470.0, 470.0, 470.0, 472.0, 471.0, 471.0, 471.0, 472.0, 472.0, 471.0, 470.0, 473.0, 471.0, 470.0, 471.0, 472.0, 471.0, 471.0, 471.0, 470.0, 472.0, 471.0, 470.0, 471.0, 471.0, 472.0, 472.0, 471.0, 471.0, 472.0, 470.0],
      "WindowWidth": [977.0, 973.0, 970.0, 971.0, 970.0, 970.0, 973.0, 976.0, 976.0, 975.0, 976.0, 978.0, 979.0, 979.0, 980.0, 979.0, 980.0, 981.0, 980.0, 981.0, 982.0, 982.0, 980.0, 982.0, 983.0, 981.0, 984.0, 982.0, 981.0, 982.0, 982.0, 983.0, 980.0, 981.0, 983.0, 982.0, 983.0, 983.0, 981.0, 981.0, 982.0, 985.0, 979.0, 978.0, 978.0, 980.0, 979.0, 980.0, 980.0, 978.0, 979.0, 981.0, 983.0, 982.0, 978.0, 978.0, 980.0, 978.0, 978.0, 980.0, 982.0, 980.0, 983.0, 981.0, 979.0, 980.0, 978.0, 975.0, 977.0, 976.0, 977.0, 978.0, 980.0, 980.0, 981.0, 979.0, 979.0, 982.0, 979.0, 978.0, 980.0, 978.0, 981.0, 980.0, 980.0, 979.0, 982.0, 982.0, 980.0, 979.0, 977.0, 980.0, 980.0, 979.0, 980.0, 982.0, 982.0, 982.0, 983.0, 982.0, 983.0, 981.0, 980.0, 982.0, 984.0, 983.0, 985.0, 982.0, 980.0, 981.0, 982.0, 981.0, 981.0, 983.0, 980.0, 980.0, 981.0, 979.0, 981.0, 983.0, 980.0, 982.0, 984.0, 982.0, 985.0, 981.0, 980.0, 981.0, 982.0, 981.0, 981.0, 984.0, 983.0, 981.0, 982.0, 981.0, 983.0, 985.0, 983.0, 983.0, 983.0, 981.0, 983.0, 982.0, 982.0, 984.0, 981.0, 983.0, 981.0, 981.0, 981.0, 983.0, 983.0, 982.0, 981.0, 981.0, 981.0, 981.0, 981.0, 985.0, 984.0, 983.0, 984.0, 982.0, 985.0, 986.0, 984.0, 983.0, 984.0, 984.0, 981.0, 983.0, 982.0, 985.0, 981.0, 982.0, 984.0, 984.0, 984.0, 984.0, 983.0, 986.0, 986.0, 984.0, 984.0, 984.0, 985.0, 985.0, 983.0, 983.0, 985.0, 983.0, 984.0, 985.0, 984.0, 986.0, 986.0, 984.0, 986.0, 985.0, 985.0, 990.0, 987.0, 986.0, 986.0, 986.0, 985.0, 984.0, 983.0, 984.0, 985.0, 982.0, 984.0, 986.0, 986.0, 987.0, 987.0, 986.0, 987.0, 986.0, 986.0, 988.0, 988.0, 986.0, 986.0, 984.0, 984.0, 986.0, 988.0, 987.0, 986.0, 987.0, 987.0, 988.0, 986.0, 985.0, 989.0, 987.0, 984.0, 986.0, 987.0, 986.0, 986.0, 986.0, 986.0, 987.0, 986.0, 985.0, 986.0, 987.0, 988.0, 988.0, 987.0, 986.0, 988.0, 985.0]
    },
    "slices": {}
  }
}