{
  "AcquisitionMatrixPE": 64,
  "AcquisitionNumber": 1,
  "AcquisitionTime": "18:26:8.790000",
  "BandwidthPerPixelPhaseEncode": 40.064,
  "BaseResolution": 64,
  "BodyPartExamined": "BRAIN",
  "ConsistencyInfo": "N4_VD13D_LATEST_20130810",
  "ConversionSoftware": "dcm2niix",
  "ConversionSoftwareVersion": "v1.0.20191031",
  "DerivedVendorReportedEchoSpacing": 0.000780002,
  "DeviceSerialNumber": "67007",
  "DwellTime": 5.3e-06,
  "EchoTime": 0.03,
  "EchoTrainLength": 31,
  "EffectiveEchoSpacing": 0.000390001,
  "FlipAngle": 75,
  "ImageOrientationPatientDICOM": [0.999918, 0.0125148, 0.00277053, -0.0122169, 0.995918, -0.0894372],
  "ImageType": [
    "ORIGINAL",
    "PRIMARY",
    "M",
    "ND",
    "NORM",
    "MOSAIC"
],
  "ImagingFrequency": 123.211,
  "InPlanePhaseEncodingDirectionDICOM": "ROW",
  "InstitutionAddress": "Perth_Drive_100_London_Ontario_CA_N6A_5K8",
  "InstitutionName": "Robarts_Research_Institute",
  "InstitutionalDepartmentName": "CFMM",
  "MRAcquisitionType": "2D",
  "MagneticFieldStrength": 3,
  "Manufacturer": "Siemens",
  "ManufacturersModelName": "Prisma_fit",
  "Modality": "MR",
  "ParallelReductionFactorInPlane": 2,
  "PartialFourier": 1,
  "PatientPosition": "HFS",
  "PercentPhaseFOV": 100,
  "PhaseEncodingDirection": "i",
  "PhaseEncodingSteps": 63,
  "PhaseResolution": 1,
  "PixelBandwidth": 1475,
  "ProcedureStepDescription": "Owen_Naci",
  "ProtocolName": "Resting_State",
  "PulseSequenceDetails": "%SiemensSeq%_ep2d_bold",
  "ReceiveCoilActiveElements": "HEA;HEP",
  "ReceiveCoilName": "Head_32",
  "ReconMatrixPE": 64,
  "RefLinesPE": 24,
  "RepetitionTime": 2,
  "SAR": 0.110914,
  "ScanOptions": "FS",
  "ScanningSequence": "EP",
  "SequenceName": "_epfid2d1_64",
  "SequenceVariant": "SK",
  "SeriesDescription": "Resting_State",
  "SeriesNumber": 5,
  "ShimSetting": [5232, -6187, -3725, 402, -34, -48, 164, 39],
  "SliceThickness": 3,
  "SliceTiming": [1.9175, 1.8575, 1.7975, 1.7375, 1.6775, 1.6175, 1.5575, 1.4975, 1.44, 1.38, 1.32, 1.26, 1.2, 1.14, 1.08, 1.02, 0.96, 0.9, 0.84, 0.78, 0.72, 0.66, 0.6, 0.54, 0.48, 0.42, 0.36, 0.3, 0.24, 0.18, 0.12, 0.06, 0],
  "SoftwareVersions": "syngo_MR_D13D",
  "SpacingBetweenSlices": 3.75,
  "StationName": "AWP67007",
  "TaskName": "rest",
  "TotalReadoutTime": 0.0245701,
  "TxRefAmp": 305.385,
  "dcmmeta_affine": [
    [-2.999753475189209, -0.036650728434324265, 0.014544394798576832, 96.53829193115234],
    [-0.03754435479640961, 2.987752676010132, -0.33523520827293396, -73.544921875],
    [0.008311583660542965, 0.2683117389678955, 3.734957456588745, -15.257863998413086],
    [0.0, 0.0, 0.0, 1.0]
],
  "dcmmeta_reorient_transform": [
    [0.0, -1.0, 0.0, 63.0],
    [1.0, 0.0, 0.0, 0.0],
    [0.0, 0.0, 1.0, 0.0],
    [0.0, 0.0, 0.0, 1.0]
],
  "dcmmeta_shape": [64, 64, 33, 256],
  "dcmmeta_slice_dim": 2,
  "dcmmeta_version": 0.6,
  "global": {
    "const": {
      "AcquisitionMatrix": [0, 64, 64, 0],
      "AngioFlag": "N",
      "BitsAllocated": 16,
      "BitsStored": 12,
      "BodyPartExamined": "BRAIN",
      "Columns": 384,
      "EchoNumbers": 1,
      "EchoTime": 30.0,
      "EchoTrainLength": 31,
      "FlipAngle": 75.0,
      "HighBit": 11,
      "ImageOrientationPatient": [0.99991784879056, 0.0125147850803, 0.00277052782863, -0.0122169090894, 0.99591752959904, -0.0894372482227],
      "ImagePositionPatient": [-568.32574940034, -598.73100236052, 43.245801801932],
      "ImageType": [
        "ORIGINAL",
        "PRIMARY",
        "M",
        "ND",
        "NORM",
        "MOSAIC"
],
      "ImagedNucleus": "1H",
      "ImagingFrequency": 123.210947,
      "InPlanePhaseEncodingDirection": "ROW",
      "MRAcquisitionType": "2D",
      "MagneticFieldStrength": 3.0,
      "Manufacturer": "SIEMENS",
      "ManufacturerModelName": "Prisma_fit",
      "Modality": "MR",
      "NumberOfAverages": 1.0,
      "NumberOfPhaseEncodingSteps": 63,
      "PercentPhaseFieldOfView": 100.0,
      "PercentSampling": 100.0,
      "PerformedProcedureStepStartTime": "174926.300000",
      "PhotometricInterpretation": "MONOCHROME2",
      "PixelBandwidth": 1475.0,
      "PixelRepresentation": 0,
      "PixelSpacing": [3.0, 3.0],
      "ProtocolName": "Resting State",
      "RepetitionTime": 2000.0,
      "Rows": 384,
      "SAR": 0.11091413656943,
      "SamplesPerPixel": 1,
      "ScanOptions": "FS",
      "ScanningSequence": "EP",
      "SequenceName": "*epfid2d1_64",
      "SequenceVariant": "SK",
      "SeriesDescription": "Resting State",
      "SeriesNumber": 5,
      "SeriesTime": "182650.525000",
      "SliceLocation": -8.2476085545625,
      "SliceThickness": 3.0,
      "SmallestImagePixelValue": 0,
      "SoftwareVersions": "syngo MR D13D",
      "SpacingBetweenSlices": 3.7500000810215,
      "SpecificCharacterSet": "ISO_IR 100",
      "StudyID": "1",
      "StudyTime": "174926.246000",
      "TimeOfLastCalibration": ["123723.000000", "123723.000000"],
      "TransmitCoilName": "Body",
      "VariableFlipAngleFlag": "N",
      "WindowCenterWidthExplanation": "Algo1",
      "dBdt": 0.0},
    "slices": {}
  },
  "time": {
    "samples": {
      "AcquisitionNumber": [1, 2, 3, 4, 5, 6, 7, 8, 9, 10, 11, 12, 13, 14, 15, 16, 17, 18, 19, 20, 21, 22, 23, 24, 25, 26, 27, 28, 29, 30, 31, 32, 33, 34, 35, 36, 37, 38, 39, 40, 41, 42, 43, 44, 45, 46, 47, 48, 49, 50, 51, 52, 53, 54, 55, 56, 57, 58, 59, 60, 61, 62, 63, 64, 65, 66, 67, 68, 69, 70, 71, 72, 73, 74, 75, 76, 77, 78, 79, 80, 81, 82, 83, 84, 85, 86, 87, 88, 89, 90, 91, 92, 93, 94, 95, 96, 97, 98, 99, 100, 101, 102, 103, 104, 105, 106, 107, 108, 109, 110, 111, 112, 113, 114, 115, 116, 117, 118, 119, 120, 121, 122, 123, 124, 125, 126, 127, 128, 129, 130, 131, 132, 133, 134, 135, 136, 137, 138, 139, 140, 141, 142, 143, 144, 145, 146, 147, 148, 149, 150, 151, 152, 153, 154, 155, 156, 157, 158, 159, 160, 161, 162, 163, 164, 165, 166, 167, 168, 169, 170, 171, 172, 173, 174, 175, 176, 177, 178, 179, 180, 181, 182, 183, 184, 185, 186, 187, 188, 189, 190, 191, 192, 193, 194, 195, 196, 197, 198, 199, 200, 201, 202, 203, 204, 205, 206, 207, 208, 209, 210, 211, 212, 213, 214, 215, 216, 217, 218, 219, 220, 221, 222, 223, 224, 225, 226, 227, 228, 229, 230, 231, 232, 233, 234, 235, 236, 237, 238, 239, 240, 241, 242, 243, 244, 245, 246, 247, 248, 249, 250, 251, 252, 253, 254, 255, 256],
      "AcquisitionTime": ["182608.790000", "182610.790000", "182612.790000", "182614.790000", "182616.790000", "182618.790000", "182620.790000", "182622.790000", "182624.792500", "182626.792500", "182628.792500", "182630.792500", "182632.792500", "182634.792500", "182636.792500", "182638.792500", "182640.792500", "182642.792500", "182644.792500", "182646.792500", "182648.792500", "182650.792500", "182652.792500", "182654.792500", "182656.792500", "182658.792500", "182700.792500", "182702.792500", "182704.792500", "182706.792500", "182708.792500", "182710.792500", "182712.792500", "182714.792500", "182716.792500", "182718.792500", "182720.792500", "182722.792500", "182724.792500", "182726.792500", "182728.792500", "182730.792500", "182732.792500", "182734.792500", "182736.792500", "182738.792500", "182740.792500", "182742.792500", "182744.792500", "182746.792500", "182748.792500", "182750.792500", "182752.792500", "182754.792500", "182756.792500", "182758.792500", "182800.792500", "182802.792500", "182804.792500", "182806.792500", "182808.792500", "182810.792500", "182812.792500", "182814.792500", "182816.792500", "182818.792500", "182820.792500", "182822.792500", "182824.792500", "182826.792500", "182828.792500", "182830.792500", "182832.792500", "182834.792500", "182836.792500", "182838.792500", "182840.792500", "182842.792500", "182844.792500", "182846.792500", "182848.792500", "182850.792500", "182852.792500", "182854.792500", "182856.792500", "182858.792500", "182900.792500", "182902.792500", "182904.792500", "182906.792500", "182908.792500", "182910.792500", "182912.792500", "182914.792500", "182916.792500", "182918.792500", "182920.792500", "182922.792500", "182924.792500", "182926.792500", "182928.792500", "182930.792500", "182932.792500", "182934.792500", "182936.792500", "182938.792500", "182940.792500", "182942.792500", "182944.792500", "182946.792500", "182948.792500", "182950.792500", "182952.792500", "182954.792500", "182956.792500", "182958.792500", "183000.792500", "183002.792500", "183004.792500", "183006.792500", "183008.792500", "183010.792500", "183012.792500", "183014.792500", "183016.792500", "183018.792500", "183020.792500", "183022.792500", "183024.792500", "183026.792500", "183028.792500", "183030.792500", "183032.792500", "183034.792500", "183036.792500", "183038.792500", "183040.792500", "183042.792500", "183044.792500", "183046.792500", "183048.792500", "183050.792500", "183052.792500", "183054.792500", "183056.792500", "183058.792500", "183100.792500", "183102.792500", "183104.792500", "183106.792500", "183108.792500", "183110.792500", "183112.792500", "183114.792500", "183116.792500", "183118.792500", "183120.792500", "183122.792500", "183124.792500", "183126.792500", "183128.792500", "183130.792500", "183132.792500", "183134.792500", "183136.792500", "183138.792500", "183140.792500", "183142.792500", "183144.792500", "183146.792500", "183148.792500", "183150.792500", "183152.792500", "183154.792500", "183156.792500", "183158.792500", "183200.792500", "183202.792500", "183204.792500", "183206.792500", "183208.792500", "183210.792500", "183212.792500", "183214.792500", "183216.792500", "183218.792500", "183220.792500", "183222.792500", "183224.792500", "183226.792500", "183228.792500", "183230.792500", "183232.792500", "183234.792500", "183236.792500", "183238.792500", "183240.792500", "183242.792500", "183244.792500", "183246.792500", "183248.792500", "183250.792500", "183252.792500", "183254.792500", "183256.792500", "183258.792500", "183300.792500", "183302.792500", "183304.792500", "183306.792500", "183308.792500", "183310.792500", "183312.792500", "183314.792500", "183316.792500", "183318.792500", "183320.792500", "183322.792500", "183324.792500", "183326.792500", "183328.792500", "183330.792500", "183332.792500", "183334.792500", "183336.792500", "183338.792500", "183340.792500", "183342.792500", "183344.792500", "183346.792500", "183348.792500", "183350.792500", "183352.792500", "183354.792500", "183356.792500", "183358.792500", "183400.792500", "183402.792500", "183404.792500", "183406.792500", "183408.792500", "183410.792500", "183412.792500", "183414.792500", "183416.792500", "183418.792500", "183420.792500", "183422.792500", "183424.792500", "183426.792500", "183428.792500", "183430.792500", "183432.792500", "183434.792500", "183436.792500", "183438.792500"],
      "ContentTime": ["182650.530000", "182650.534000", "182650.547000", "182650.550000", "182650.553000", "182650.556000", "182650.558000", "182650.561000", "182650.564000", "182650.567000", "182650.570000", "182650.572000", "182650.576000", "182650.578000", "182650.581000", "182650.588000", "182650.591000", "182650.594000", "182650.597000", "182650.600000", "182650.603000", "182730.522000", "182730.525000", "182730.528000", "182730.531000", "182730.534000", "182730.537000", "182730.540000", "182730.542000", "182730.545000", "182730.549000", "182730.552000", "182730.555000", "182730.558000", "182730.560000", "182730.563000", "182730.566000", "182730.569000", "182730.572000", "182730.574000", "182730.577000", "182810.522000", "182810.525000", "182810.528000", "182810.531000", "182810.534000", "182810.537000", "182810.540000", "182810.542000", "182810.545000", "182810.548000", "182810.551000", "182810.554000", "182810.556000", "182810.559000", "182810.562000", "182810.565000", "182810.568000", "182810.571000", "182810.574000", "182810.577000", "182850.522000", "182850.525000", "182850.528000", "182850.530000", "182850.534000", "182850.536000", "182850.539000", "182850.542000", "182850.545000", "182850.548000", "182850.551000", "182850.554000", "182850.556000", "182850.559000", "182850.562000", "182850.565000", "182850.568000", "182850.571000", "182850.574000", "182850.576000", "182910.523000", "182910.527000", "182910.529000", "182910.532000", "182910.535000", "182910.537000", "182910.540000", "182910.543000", "182910.546000", "182910.549000", "182950.521000", "182950.525000", "182950.527000", "182950.530000", "182950.533000", "182950.536000", "182950.538000", "182950.541000", "182950.543000", "182950.546000", "182950.549000", "182950.552000", "182950.554000", "182950.557000", "182950.560000", "182950.563000", "182950.565000", "182950.569000", "182950.571000", "182950.574000", "183030.521000", "183030.525000", "183030.527000", "183030.530000", "183030.533000", "183030.536000", "183030.539000", "183030.542000", "183030.544000", "183030.547000", "183030.550000", "183030.553000", "183030.556000", "183030.559000", "183030.562000", "183030.564000", "183030.567000", "183030.570000", "183030.573000", "183030.575000", "183110.522000", "183110.525000", "183110.528000", "183110.531000", "183110.534000", "183110.537000", "183110.539000", "183110.542000", "183110.545000", "183110.548000", "183110.551000", "183110.553000", "183110.556000", "183110.559000", "183110.562000", "183110.565000", "183110.568000", "183110.571000", "183110.574000", "183110.577000", "183150.522000", "183150.525000", "183150.528000", "183150.531000", "183150.534000", "183150.536000", "183150.539000", "183150.542000", "183150.544000", "183150.547000", "183150.550000", "183150.553000", "183150.556000", "183150.559000", "183150.561000", "183150.564000", "183150.567000", "183150.570000", "183150.573000", "183150.576000", "183230.521000", "183230.524000", "183230.527000", "183230.529000", "183230.532000", "183230.535000", "183230.538000", "183230.540000", "183230.543000", "183230.546000", "183230.549000", "183230.552000", "183230.555000", "183230.557000", "183230.560000", "183230.563000", "183230.566000", "183230.569000", "183230.572000", "183230.575000", "183310.522000", "183310.525000", "183310.528000", "183310.531000", "183310.533000", "183310.536000", "183310.539000", "183310.542000", "183310.544000", "183310.547000", "183310.550000", "183310.553000", "183310.555000", "183310.558000", "183310.561000", "183310.564000", "183310.566000", "183310.569000", "183310.572000", "183310.575000", "183350.522000", "183350.525000", "183350.528000", "183350.531000", "183350.534000", "183350.537000", "183350.540000", "183350.542000", "183350.545000", "183350.548000", "183350.551000", "183350.554000", "183350.556000", "183350.559000", "183350.562000", "183350.565000", "183350.568000", "183350.571000", "183350.574000", "183350.576000", "183430.521000", "183430.524000", "183430.527000", "183430.530000", "183430.533000", "183430.535000", "183430.538000", "183430.542000", "183430.544000", "183430.547000", "183430.550000", "183430.553000", "183430.556000", "183430.558000", "183430.561000", "183430.564000", "183430.567000", "183430.570000", "183430.573000", "183430.576000", "183439.410000", "183439.413000", "183439.416000", "183439.419000", "183439.421000"],
      "InstanceCreationTime": ["182650.530000", "182650.534000", "182650.547000", "182650.550000", "182650.553000", "182650.556000", "182650.558000", "182650.561000", "182650.564000", "182650.567000", "182650.570000", "182650.572000", "182650.576000", "182650.578000", "182650.581000", "182650.588000", "182650.591000", "182650.594000", "182650.597000", "182650.600000", "182650.603000", "182730.522000", "182730.525000", "182730.528000", "182730.531000", "182730.534000", "182730.537000", "182730.540000", "182730.542000", "182730.545000", "182730.549000", "182730.552000", "182730.555000", "182730.558000", "182730.560000", "182730.563000", "182730.566000", "182730.569000", "182730.572000", "182730.574000", "182730.577000", "182810.522000", "182810.525000", "182810.528000", "182810.531000", "182810.534000", "182810.537000", "182810.540000", "182810.542000", "182810.545000", "182810.548000", "182810.551000", "182810.554000", "182810.556000", "182810.559000", "182810.562000", "182810.565000", "182810.568000", "182810.571000", "182810.574000", "182810.577000", "182850.522000", "182850.525000", "182850.528000", "182850.530000", "182850.534000", "182850.536000", "182850.539000", "182850.542000", "182850.545000", "182850.548000", "182850.551000", "182850.554000", "182850.556000", "182850.559000", "182850.562000", "182850.565000", "182850.568000", "182850.571000", "182850.574000", "182850.576000", "182910.523000", "182910.527000", "182910.529000", "182910.532000", "182910.535000", "182910.537000", "182910.540000", "182910.543000", "182910.546000", "182910.549000", "182950.521000", "182950.525000", "182950.527000", "182950.530000", "182950.533000", "182950.536000", "182950.538000", "182950.541000", "182950.543000", "182950.546000", "182950.549000", "182950.552000", "182950.554000", "182950.557000", "182950.560000", "182950.563000", "182950.565000", "182950.569000", "182950.571000", "182950.574000", "183030.521000", "183030.525000", "183030.527000", "183030.530000", "183030.533000", "183030.536000", "183030.539000", "183030.542000", "183030.544000", "183030.547000", "183030.550000", "183030.553000", "183030.556000", "183030.559000", "183030.562000", "183030.564000", "183030.567000", "183030.570000", "183030.573000", "183030.575000", "183110.522000", "183110.525000", "183110.528000", "183110.531000", "183110.534000", "183110.537000", "183110.539000", "183110.542000", "183110.545000", "183110.548000", "183110.551000", "183110.553000", "183110.556000", "183110.559000", "183110.562000", "183110.565000", "183110.568000", "183110.571000", "183110.574000", "183110.577000", "183150.522000", "183150.525000", "183150.528000", "183150.531000", "183150.534000", "183150.536000", "183150.539000", "183150.542000", "183150.544000", "183150.547000", "183150.550000", "183150.553000", "183150.556000", "183150.559000", "183150.561000", "183150.564000", "183150.567000", "183150.570000", "183150.573000", "183150.576000", "183230.521000", "183230.524000", "183230.527000", "183230.529000", "183230.532000", "183230.535000", "183230.538000", "183230.540000", "183230.543000", "183230.546000", "183230.549000", "183230.552000", "183230.555000", "183230.557000", "183230.560000", "183230.563000", "183230.566000", "183230.569000", "183230.572000", "183230.575000", "183310.522000", "183310.525000", "183310.528000", "183310.531000", "183310.533000", "183310.536000", "183310.539000", "183310.542000", "183310.544000", "183310.547000", "183310.550000", "183310.553000", "183310.555000", "183310.558000", "183310.561000", "183310.564000", "183310.566000", "183310.569000", "183310.572000", "183310.575000", "183350.522000", "183350.525000", "183350.528000", "183350.531000", "183350.534000", "183350.537000", "183350.540000", "183350.542000", "183350.545000", "183350.548000", "183350.551000", "183350.554000", "183350.556000", "183350.559000", "183350.562000", "183350.565000", "183350.568000", "183350.571000", "183350.574000", "183350.576000", "183430.521000", "183430.524000", "183430.527000", "183430.530000", "183430.533000", "183430.535000", "183430.538000", "183430.542000", "183430.544000", "183430.547000", "183430.550000", "183430.553000", "183430.556000", "183430.558000", "183430.561000", "183430.564000", "183430.567000", "183430.570000", "183430.573000", "183430.576000", "183439.410000", "183439.413000", "183439.416000", "183439.419000", "183439.421000"],
      "InstanceNumber": [1, 2, 3, 4, 5, 6, 7, 8, 9, 10, 11, 12, 13, 14, 15, 16, 17, 18, 19, 20, 21, 22, 23, 24, 25, 26, 27, 28, 29, 30, 31, 32, 33, 34, 35, 36, 37, 38, 39, 40, 41, 42, 43, 44, 45, 46, 47, 48, 49, 50, 51, 52, 53, 54, 55, 56, 57, 58, 59, 60, 61, 62, 63, 64, 65, 66, 67, 68, 69, 70, 71, 72, 73, 74, 75, 76, 77, 78, 79, 80, 81, 82, 83, 84, 85, 86, 87, 88, 89, 90, 91, 92, 93, 94, 95, 96, 97, 98, 99, 100, 101, 102, 103, 104, 105, 106, 107, 108, 109, 110, 111, 112, 113, 114, 115, 116, 117, 118, 119, 120, 121, 122, 123, 124, 125, 126, 127, 128, 129, 130, 131, 132, 133, 134, 135, 136, 137, 138, 139, 140, 141, 142, 143, 144, 145, 146, 147, 148, 149, 150, 151, 152, 153, 154, 155, 156, 157, 158, 159, 160, 161, 162, 163, 164, 165, 166, 167, 168, 169, 170, 171, 172, 173, 174, 175, 176, 177, 178, 179, 180, 181, 182, 183, 184, 185, 186, 187, 188, 189, 190, 191, 192, 193, 194, 195, 196, 197, 198, 199, 200, 201, 202, 203, 204, 205, 206, 207, 208, 209, 210, 211, 212, 213, 214, 215, 216, 217, 218, 219, 220, 221, 222, 223, 224, 225, 226, 227, 228, 229, 230, 231, 232, 233, 234, 235, 236, 237, 238, 239, 240, 241, 242, 243, 244, 245, 246, 247, 248, 249, 250, 251, 252, 253, 254, 255, 256],
      "LargestImagePixelValue": [843, 870, 839, 848, 847, 840, 812, 868, 823, 870, 838, 865, 849, 842, 881, 855, 821, 858, 868, 824, 859, 840, 864, 862, 816, 863, 895, 826, 879, 834, 867, 864, 835, 867, 869, 820, 881, 882, 848, 864, 844, 888, 843, 837, 853, 842, 822, 856, 888, 825, 872, 852, 818, 868, 843, 821, 873, 861, 845, 821, 865, 870, 848, 863, 830, 849, 888, 842, 833, 860, 866, 873, 833, 854, 884, 863, 872, 836, 868, 900, 840, 881, 872, 842, 868, 849, 864, 858, 889, 840, 868, 878, 879, 841, 884, 858, 822, 848, 867, 871, 851, 827, 856, 878, 883, 833, 876, 895, 820, 841, 880, 853, 840, 854, 912, 850, 877, 860, 837, 848, 860, 872, 832, 841, 864, 846, 829, 967, 857, 852, 881, 848, 838, 843, 876, 863, 867, 867, 873, 861, 846, 864, 866, 834, 906, 842, 843, 844, 820, 892, 845, 831, 857, 847, 864, 864, 858, 840, 856, 878, 847, 824, 891, 868, 866, 849, 875, 844, 851, 872, 846, 869, 869, 846, 863, 853, 861, 845, 861, 855, 836, 862, 874, 842, 874, 863, 851, 839, 883, 876, 860, 830, 882, 840, 832, 887, 899, 863, 864, 864, 853, 879, 897, 879, 838, 858, 852, 866, 877, 846, 882, 858, 859, 849, 877, 872, 824, 867, 872, 866, 861, 852, 838, 882, 836, 804, 876, 842, 865, 873, 845, 819, 897, 848, 839, 868, 828, 888, 842, 829, 842, 850, 835, 845, 851, 854, 865, 829, 862, 875, 854, 828, 920, 847, 823, 849],
      "WindowCenter": [464.0, 465.0, 463.0, 462.0, 463.0, 463.0, 462.0, 462.0, 461.0, 462.0, 461.0, 462.0, 462.0, 462.0, 462.0, 462.0, 461.0, 462.0, 462.0, 461.0, 461.0, 460.0, 460.0, 462.0, 461.0, 462.0, 461.0, 460.0, 461.0, 461.0, 461.0, 462.0, 461.0, 462.0, 462.0, 461.0, 462.0, 462.0, 462.0, 463.0, 462.0, 463.0, 464.0, 464.0, 464.0, 464.0, 463.0, 464.0, 465.0, 463.0, 465.0, 464.0, 463.0, 464.0, 463.0, 463.0, 462.0, 461.0, 460.0, 460.0, 460.0, 461.0, 461.0, 462.0, 461.0, 460.0, 461.0, 461.0, 462.0, 462.0, 463.0, 464.0, 464.0, 465.0, 465.0, 464.0, 463.0, 463.0, 462.0, 462.0, 461.0, 462.0, 462.0, 461.0, 462.0, 463.0, 462.0, 461.0, 462.0, 461.0, 462.0, 462.0, 462.0, 461.0, 462.0, 463.0, 462.0, 462.0, 463.0, 463.0, 462.0, 461.0, 461.0, 461.0, 461.0, 460.0, 461.0, 463.0, 463.0, 463.0, 464.0, 464.0, 463.0, 463.0, 464.0, 463.0, 465.0, 465.0, 465.0, 465.0, 466.0, 465.0, 465.0, 465.0, 466.0, 465.0, 464.0, 465.0, 463.0, 461.0, 461.0, 460.0, 460.0, 460.0, 460.0, 459.0, 461.0, 462.0, 463.0, 464.0, 463.0, 464.0, 464.0, 463.0, 464.0, 461.0, 461.0, 462.0, 461.0, 463.0, 463.0, 464.0, 463.0, 463.0, 464.0, 463.0, 463.0, 463.0, 464.0, 464.0, 464.0, 462.0, 463.0, 461.0, 461.0, 461.0, 462.0, 462.0, 461.0, 462.0, 462.0, 463.0, 463.0, 463.0, 464.0, 464.0, 463.0, 463.0, 463.0, 463.0, 462.0, 461.0, 461.0, 459.0, 459.0, 460.0, 460.0, 460.0, 462.0, 463.0, 463.0, 464.0, 466.0, 466.0, 467.0, 467.0, 466.0, 465.0, 466.0, 466.0, 465.0, 466.0, 463.0, 463.0, 460.0, 460.0, 460.0, 460.0, 460.0, 461.0, 463.0, 462.0, 463.0, 462.0, 462.0, 462.0, 461.0, 461.0, 462.0, 463.0, 464.0, 464.0, 464.0, 465.0, 465.0, 464.0, 465.0, 464.0, 464.0, 464.0, 464.0, 465.0, 464.0, 462.0, 462.0, 462.0, 462.0, 464.0, 463.0, 463.0, 463.0, 463.0, 463.0, 463.0, 463.0, 465.0, 465.0, 464.0, 465.0, 466.0, 465.0, 466.0, 467.0, 466.0, 465.0, 465.0],
      "WindowWidth": [974.0, 974.0, 971.0, 969.0, 970.0, 971.0, 970.0, 970.0, 968.0, 969.0, 967.0, 969.0, 969.0, 969.0, 970.0, 970.0, 968.0, 969.0, 969.0, 968.0, 968.0, 966.0, 966.0, 969.0, 967.0, 969.0, 967.0, 965.0, 967.0, 967.0, 968.0, 969.0, 968.0, 969.0, 970.0, 968.0, 969.0, 969.0, 970.0, 970.0, 969.0, 972.0, 972.0, 973.0, 973.0, 972.0, 971.0, 973.0, 974.0, 972.0, 974.0, 973.0, 971.0, 973.0, 971.0, 971.0, 969.0, 967.0, 966.0, 965.0, 966.0, 967.0, 967.0, 969.0, 968.0, 966.0, 967.0, 968.0, 969.0, 970.0, 971.0, 973.0, 973.0, 975.0, 975.0, 973.0, 972.0, 970.0, 969.0, 968.0, 968.0, 969.0, 969.0, 968.0, 969.0, 971.0, 969.0, 968.0, 969.0, 968.0, 969.0, 970.0, 968.0, 968.0, 969.0, 971.0, 969.0, 970.0, 971.0, 970.0, 970.0, 968.0, 967.0, 967.0, 967.0, 966.0, 968.0, 971.0, 970.0, 972.0, 973.0, 973.0, 972.0, 972.0, 972.0, 971.0, 974.0, 975.0, 975.0, 976.0, 976.0, 975.0, 974.0, 975.0, 977.0, 975.0, 974.0, 974.0, 971.0, 967.0, 967.0, 966.0, 966.0, 965.0, 966.0, 965.0, 967.0, 969.0, 971.0, 972.0, 972.0, 974.0, 972.0, 971.0, 972.0, 968.0, 968.0, 968.0, 968.0, 971.0, 971.0, 972.0, 972.0, 972.0, 972.0, 971.0, 971.0, 971.0, 974.0, 973.0, 973.0, 971.0, 970.0, 968.0, 968.0, 967.0, 968.0, 969.0, 968.0, 970.0, 969.0, 971.0, 972.0, 971.0, 973.0, 973.0, 971.0, 973.0, 972.0, 970.0, 970.0, 968.0, 968.0, 965.0, 964.0, 965.0, 965.0, 966.0, 968.0, 972.0, 972.0, 972.0, 977.0, 976.0, 979.0, 979.0, 977.0, 975.0, 977.0, 976.0, 975.0, 976.0, 972.0, 971.0, 966.0, 967.0, 965.0, 965.0, 966.0, 968.0, 971.0, 970.0, 971.0, 970.0, 969.0, 969.0, 967.0, 968.0, 970.0, 971.0, 974.0, 974.0, 974.0, 975.0, 975.0, 974.0, 976.0, 974.0, 973.0, 974.0, 974.0, 974.0, 973.0, 969.0, 969.0, 970.0, 969.0, 972.0, 971.0, 972.0, 971.0, 971.0, 971.0, 971.0, 972.0, 974.0, 974.0, 974.0, 974.0, 976.0, 976.0, 977.0, 978.0, 978.0, 975.0, 975.0]
    },
    "slices": {}
  }
}