{
  "AcquisitionMatrixPE": 64,
  "AcquisitionNumber": 1,
  "AcquisitionTime": "19:09:1.200000",
  "BandwidthPerPixelPhaseEncode": 40.064,
  "BaseResolution": 64,
  "BodyPartExamined": "BRAIN",
  "ConsistencyInfo": "N4_VD13D_LATEST_20130810",
  "ConversionSoftware": "dcm2niix",
  "ConversionSoftwareVersion": "v1.0.20191031",
  "DerivedVendorReportedEchoSpacing": 0.000780002,
  "DeviceSerialNumber": "67007",
  "DwellTime": 5.3e-06,
  "EchoTime": 0.03,
  "EchoTrainLength": 31,
  "EffectiveEchoSpacing": 0.000390001,
  "FlipAngle": 75,
  "ImageOrientationPatientDICOM": [0.999918, 0.0125148, 0.00277053, -0.0122169, 0.995918, -0.0894372],
  "ImageType": [
    "ORIGINAL",
    "PRIMARY",
    "M",
    "ND",
    "NORM",
    "MOSAIC"
],
  "ImagingFrequency": 123.211,
  "InPlanePhaseEncodingDirectionDICOM": "ROW",
  "InstitutionAddress": "Perth_Drive_100_London_Ontario_CA_N6A_5K8",
  "InstitutionName": "Robarts_Research_Institute",
  "InstitutionalDepartmentName": "CFMM",
  "MRAcquisitionType": "2D",
  "MagneticFieldStrength": 3,
  "Manufacturer": "Siemens",
  "ManufacturersModelName": "Prisma_fit",
  "Modality": "MR",
  "ParallelReductionFactorInPlane": 2,
  "PartialFourier": 1,
  "PatientPosition": "HFS",
  "PercentPhaseFOV": 100,
  "PhaseEncodingDirection": "i",
  "PhaseEncodingSteps": 63,
  "PhaseResolution": 1,
  "PixelBandwidth": 1475,
  "ProcedureStepDescription": "Owen_Naci",
  "ProtocolName": "taken_DEEP_SED",
  "PulseSequenceDetails": "%SiemensSeq%_ep2d_bold",
  "ReceiveCoilActiveElements": "HEA;HEP",
  "ReceiveCoilName": "Head_32",
  "ReconMatrixPE": 64,
  "RefLinesPE": 24,
  "RepetitionTime": 2,
  "SAR": 0.110708,
  "ScanOptions": "FS",
  "ScanningSequence": "EP",
  "SequenceName": "_epfid2d1_64",
  "SequenceVariant": "SK",
  "SeriesDescription": "taken_DEEP_SED",
  "SeriesNumber": 11,
  "ShimSetting": [5232, -6187, -3725, 402, -34, -48, 164, 39],
  "SliceThickness": 3,
  "SliceTiming": [1.92, 1.86, 1.8, 1.74, 1.68, 1.62, 1.56, 1.5, 1.44, 1.38, 1.32, 1.26, 1.2, 1.14, 1.08, 1.02, 0.96, 0.9, 0.84, 0.78, 0.72, 0.66, 0.6, 0.54, 0.48, 0.42, 0.36, 0.3, 0.24, 0.18, 0.12, 0.06, 0],
  "SoftwareVersions": "syngo_MR_D13D",
  "SpacingBetweenSlices": 3.75,
  "StationName": "AWP67007",
  "TaskName": "audio",
  "TotalReadoutTime": 0.0245701,
  "TxRefAmp": 305.385,
  "dcmmeta_affine": [
    [-2.999753475189209, -0.036650728434324265, 0.014544394798576832, 96.53829193115234],
    [-0.03754435479640961, 2.987752676010132, -0.33523520827293396, -73.544921875],
    [0.008311583660542965, 0.2683117389678955, 3.734957456588745, -15.257863998413086],
    [0.0, 0.0, 0.0, 1.0]
],
  "dcmmeta_reorient_transform": [
    [0.0, -1.0, 0.0, 63.0],
    [1.0, 0.0, 0.0, 0.0],
    [0.0, 0.0, 1.0, 0.0],
    [0.0, 0.0, 0.0, 1.0]
],
  "dcmmeta_shape": [64, 64, 33, 155],
  "dcmmeta_slice_dim": 2,
  "dcmmeta_version": 0.6,
  "global": {
    "const": {
      "AcquisitionMatrix": [0, 64, 64, 0],
      "AngioFlag": "N",
      "BitsAllocated": 16,
      "BitsStored": 12,
      "BodyPartExamined": "BRAIN",
      "Columns": 384,
      "EchoNumbers": 1,
      "EchoTime": 30.0,
      "EchoTrainLength": 31,
      "FlipAngle": 75.0,
      "HighBit": 11,
      "ImageOrientationPatient": [0.99991784879056, 0.0125147850803, 0.00277052782863, -0.0122169090894, 0.99591752959904, -0.0894372482227],
      "ImagePositionPatient": [-568.32574940034, -598.73100236052, 43.245801801932],
      "ImageType": [
        "ORIGINAL",
        "PRIMARY",
        "M",
        "ND",
        "NORM",
        "MOSAIC"
],
      "ImagedNucleus": "1H",
      "ImagingFrequency": 123.210945,
      "InPlanePhaseEncodingDirection": "ROW",
      "MRAcquisitionType": "2D",
      "MagneticFieldStrength": 3.0,
      "Manufacturer": "SIEMENS",
      "ManufacturerModelName": "Prisma_fit",
      "Modality": "MR",
      "NumberOfAverages": 1.0,
      "NumberOfPhaseEncodingSteps": 63,
      "PercentPhaseFieldOfView": 100.0,
      "PercentSampling": 100.0,
      "PerformedProcedureStepStartTime": "174926.300000",
      "PhotometricInterpretation": "MONOCHROME2",
      "PixelBandwidth": 1475.0,
      "PixelRepresentation": 0,
      "PixelSpacing": [3.0, 3.0],
      "ProtocolName": "taken_DEEP SED",
      "RepetitionTime": 2000.0,
      "Rows": 384,
      "SAR": 0.11070843273823,
      "SamplesPerPixel": 1,
      "ScanOptions": "FS",
      "ScanningSequence": "EP",
      "SequenceName": "*epfid2d1_64",
      "SequenceVariant": "SK",
      "SeriesDescription": "taken_DEEP SED",
      "SeriesNumber": 11,
      "SeriesTime": "190910.525000",
      "SliceLocation": -8.2476085545625,
      "SliceThickness": 3.0,
      "SmallestImagePixelValue": 0,
      "SoftwareVersions": "syngo MR D13D",
      "SpacingBetweenSlices": 3.7500000810215,
      "SpecificCharacterSet": "ISO_IR 100",
      "StudyID": "1",
      "StudyTime": "174926.246000",
      "TimeOfLastCalibration": ["123723.000000", "123723.000000"],
      "TransmitCoilName": "Body",
      "VariableFlipAngleFlag": "N",
      "WindowCenterWidthExplanation": "Algo1",
      "dBdt": 0.0},
    "slices": {}
  },
  "time": {
    "samples": {
      "AcquisitionNumber": [1, 2, 3, 4, 5, 6, 7, 8, 9, 10, 11, 12, 13, 14, 15, 16, 17, 18, 19, 20, 21, 22, 23, 24, 25, 26, 27, 28, 29, 30, 31, 32, 33, 34, 35, 36, 37, 38, 39, 40, 41, 42, 43, 44, 45, 46, 47, 48, 49, 50, 51, 52, 53, 54, 55, 56, 57, 58, 59, 60, 61, 62, 63, 64, 65, 66, 67, 68, 69, 70, 71, 72, 73, 74, 75, 76, 77, 78, 79, 80, 81, 82, 83, 84, 85, 86, 87, 88, 89, 90, 91, 92, 93, 94, 95, 96, 97, 98, 99, 100, 101, 102, 103, 104, 105, 106, 107, 108, 109, 110, 111, 112, 113, 114, 115, 116, 117, 118, 119, 120, 121, 122, 123, 124, 125, 126, 127, 128, 129, 130, 131, 132, 133, 134, 135, 136, 137, 138, 139, 140, 141, 142, 143, 144, 145, 146, 147, 148, 149, 150, 151, 152, 153, 154, 155],
      "AcquisitionTime": ["190901.200000", "190903.200000", "190905.200000", "190907.200000", "190909.200000", "190911.200000", "190913.200000", "190915.200000", "190917.200000", "190919.200000", "190921.200000", "190923.200000", "190925.200000", "190927.200000", "190929.200000", "190931.200000", "190933.200000", "190935.200000", "190937.200000", "190939.200000", "190941.200000", "190943.200000", "190945.200000", "190947.200000", "190949.200000", "190951.200000", "190953.200000", "190955.200000", "190957.200000", "190959.200000", "191001.200000", "191003.200000", "191005.200000", "191007.200000", "191009.200000", "191011.200000", "191013.200000", "191015.200000", "191017.200000", "191019.200000", "191021.200000", "191023.200000", "191025.200000", "191027.200000", "191029.200000", "191031.200000", "191033.200000", "191035.200000", "191037.200000", "191039.200000", "191041.200000", "191043.200000", "191045.200000", "191047.200000", "191049.200000", "191051.200000", "191053.200000", "191055.200000", "191057.200000", "191059.200000", "191101.200000", "191103.200000", "191105.200000", "191107.200000", "191109.200000", "191111.200000", "191113.200000", "191115.200000", "191117.200000", "191119.200000", "191121.200000", "191123.200000", "191125.200000", "191127.200000", "191129.200000", "191131.200000", "191133.200000", "191135.200000", "191137.200000", "191139.200000", "191141.200000", "191143.200000", "191145.200000", "191147.200000", "191149.200000", "191151.200000", "191153.200000", "191155.200000", "191157.200000", "191159.200000", "191201.200000", "191203.200000", "191205.200000", "191207.200000", "191209.200000", "191211.200000", "191213.200000", "191215.200000", "191217.200000", "191219.200000", "191221.200000", "191223.200000", "191225.200000", "191227.200000", "191229.200000", "191231.200000", "191233.200000", "191235.200000", "191237.200000", "191239.200000", "191241.200000", "191243.200000", "191245.200000", "191247.200000", "191249.200000", "191251.200000", "191253.200000", "191255.200000", "191257.200000", "191259.200000", "191301.200000", "191303.200000", "191305.200000", "191307.200000", "191309.200000", "191311.200000", "191313.200000", "191315.200000", "191317.200000", "191319.200000", "191321.200000", "191323.200000", "191325.200000", "191327.200000", "191329.200000", "191331.200000", "191333.200000", "191335.200000", "191337.200000", "191339.200000", "191341.200000", "191343.200000", "191345.200000", "191347.200000", "191349.200000", "191351.200000", "191353.200000", "191355.200000", "191357.200000", "191359.200000", "191401.200000", "191403.200000", "191405.200000", "191407.200000", "191409.200000"],
      "ContentTime": ["190910.529000", "190910.533000", "190910.536000", "190910.539000", "190910.542000", "190950.521000", "190950.524000", "190950.527000", "190950.530000", "190950.533000", "190950.536000", "190950.539000", "190950.542000", "190950.545000", "190950.548000", "190950.550000", "190950.553000", "190950.556000", "190950.559000", "190950.562000", "190950.571000", "190950.574000", "190950.577000", "190950.580000", "190950.583000", "191030.522000", "191030.525000", "191030.528000", "191030.531000", "191030.534000", "191030.536000", "191030.540000", "191030.542000", "191030.545000", "191030.548000", "191030.551000", "191030.554000", "191030.557000", "191030.559000", "191030.562000", "191030.565000", "191030.568000", "191030.571000", "191030.574000", "191030.577000", "191110.521000", "191110.525000", "191110.527000", "191110.530000", "191110.533000", "191110.536000", "191110.539000", "191110.542000", "191110.545000", "191110.548000", "191110.550000", "191110.553000", "191110.556000", "191110.559000", "191110.562000", "191110.565000", "191110.567000", "191110.570000", "191110.573000", "191110.576000", "191150.520000", "191150.524000", "191150.527000", "191150.530000", "191150.533000", "191150.536000", "191150.540000", "191150.543000", "191150.546000", "191150.549000", "191150.554000", "191150.575000", "191150.578000", "191150.581000", "191150.584000", "191150.587000", "191150.590000", "191150.593000", "191150.596000", "191150.599000", "191230.522000", "191230.526000", "191230.529000", "191230.532000", "191230.535000", "191230.539000", "191230.542000", "191230.545000", "191230.549000", "191230.565000", "191230.568000", "191230.571000", "191230.574000", "191230.578000", "191230.581000", "191230.584000", "191230.594000", "191230.597000", "191230.600000", "191230.603000", "191310.521000", "191310.525000", "191310.528000", "191310.531000", "191310.534000", "191310.537000", "191310.540000", "191310.545000", "191310.549000", "191310.553000", "191310.556000", "191310.559000", "191310.562000", "191310.565000", "191310.568000", "191310.571000", "191310.574000", "191310.577000", "191310.583000", "191310.586000", "191350.520000", "191350.524000", "191350.527000", "191350.530000", "191350.533000", "191350.536000", "191350.541000", "191350.545000", "191350.549000", "191350.552000", "191350.556000", "191350.560000", "191350.563000", "191350.573000", "191350.576000", "191350.579000", "191350.582000", "191350.585000", "191350.588000", "191350.593000", "191410.006000", "191410.010000", "191410.018000", "191410.022000", "191410.027000", "191410.030000", "191410.033000", "191410.036000", "191410.039000", "191410.042000"],
      "InstanceCreationTime": ["190910.529000", "190910.533000", "190910.536000", "190910.539000", "190910.542000", "190950.521000", "190950.524000", "190950.527000", "190950.530000", "190950.533000", "190950.536000", "190950.539000", "190950.542000", "190950.545000", "190950.548000", "190950.550000", "190950.553000", "190950.556000", "190950.559000", "190950.562000", "190950.571000", "190950.574000", "190950.577000", "190950.580000", "190950.583000", "191030.522000", "191030.525000", "191030.528000", "191030.531000", "191030.534000", "191030.536000", "191030.540000", "191030.542000", "191030.545000", "191030.548000", "191030.551000", "191030.554000", "191030.557000", "191030.559000", "191030.562000", "191030.565000", "191030.568000", "191030.571000", "191030.574000", "191030.577000", "191110.521000", "191110.525000", "191110.527000", "191110.530000", "191110.533000", "191110.536000", "191110.539000", "191110.542000", "191110.545000", "191110.548000", "191110.550000", "191110.553000", "191110.556000", "191110.559000", "191110.562000", "191110.565000", "191110.567000", "191110.570000", "191110.573000", "191110.576000", "191150.520000", "191150.524000", "191150.527000", "191150.530000", "191150.533000", "191150.536000", "191150.540000", "191150.543000", "191150.546000", "191150.549000", "191150.554000", "191150.575000", "191150.578000", "191150.581000", "191150.584000", "191150.587000", "191150.590000", "191150.593000", "191150.596000", "191150.599000", "191230.522000", "191230.526000", "191230.529000", "191230.532000", "191230.535000", "191230.539000", "191230.542000", "191230.545000", "191230.549000", "191230.565000", "191230.568000", "191230.571000", "191230.574000", "191230.578000", "191230.581000", "191230.584000", "191230.594000", "191230.597000", "191230.600000", "191230.603000", "191310.521000", "191310.525000", "191310.528000", "191310.531000", "191310.534000", "191310.537000", "191310.540000", "191310.545000", "191310.549000", "191310.553000", "191310.556000", "191310.559000", "191310.562000", "191310.565000", "191310.568000", "191310.571000", "191310.574000", "191310.577000", "191310.583000", "191310.586000", "191350.520000", "191350.524000", "191350.527000", "191350.530000", "191350.533000", "191350.536000", "191350.541000", "191350.545000", "191350.549000", "191350.552000", "191350.556000", "191350.560000", "191350.563000", "191350.573000", "191350.576000", "191350.579000", "191350.582000", "191350.585000", "191350.588000", "191350.593000", "191410.006000", "191410.010000", "191410.018000", "191410.022000", "191410.027000", "191410.030000", "191410.033000", "191410.036000", "191410.039000", "191410.042000"],
      "InstanceNumber": [1, 2, 3, 4, 5, 6, 7, 8, 9, 10, 11, 12, 13, 14, 15, 16, 17, 18, 19, 20, 21, 22, 23, 24, 25, 26, 27, 28, 29, 30, 31, 32, 33, 34, 35, 36, 37, 38, 39, 40, 41, 42, 43, 44, 45, 46, 47, 48, 49, 50, 51, 52, 53, 54, 55, 56, 57, 58, 59, 60, 61, 62, 63, 64, 65, 66, 67, 68, 69, 70, 71, 72, 73, 74, 75, 76, 77, 78, 79, 80, 81, 82, 83, 84, 85, 86, 87, 88, 89, 90, 91, 92, 93, 94, 95, 96, 97, 98, 99, 100, 101, 102, 103, 104, 105, 106, 107, 108, 109, 110, 111, 112, 113, 114, 115, 116, 117, 118, 119, 120, 121, 122, 123, 124, 125, 126, 127, 128, 129, 130, 131, 132, 133, 134, 135, 136, 137, 138, 139, 140, 141, 142, 143, 144, 145, 146, 147, 148, 149, 150, 151, 152, 153, 154, 155],
      "LargestImagePixelValue": [930, 932, 942, 1180, 957, 865, 945, 886, 896, 845, 877, 868, 857, 974, 974, 953, 949, 810, 849, 905, 913, 830, 884, 918, 826, 829, 911, 894, 843, 850, 889, 838, 847, 841, 874, 843, 852, 959, 809, 856, 837, 824, 860, 918, 896, 841, 822, 884, 945, 844, 840, 871, 845, 852, 977, 839, 830, 859, 922, 864, 870, 839, 883, 910, 838, 829, 861, 956, 826, 842, 846, 810, 823, 870, 878, 818, 819, 835, 843, 877, 838, 922, 857, 878, 845, 843, 853, 842, 878, 872, 937, 824, 823, 828, 837, 846, 885, 912, 871, 816, 913, 845, 924, 964, 897, 849, 913, 871, 899, 857, 808, 813, 902, 887, 821, 856, 937, 824, 878, 953, 823, 823, 937, 874, 825, 809, 838, 926, 908, 879, 933, 850, 850, 915, 907, 850, 875, 864, 906, 843, 829, 835, 896, 861, 835, 855, 909, 916, 888, 956, 909, 906, 904, 934, 925],
      "WindowCenter": [473.0, 471.0, 470.0, 469.0, 465.0, 463.0, 464.0, 466.0, 468.0, 468.0, 468.0, 468.0, 465.0, 465.0, 465.0, 463.0, 463.0, 460.0, 461.0, 463.0, 462.0, 461.0, 462.0, 464.0, 463.0, 463.0, 463.0, 463.0, 462.0, 462.0, 463.0, 464.0, 466.0, 466.0, 466.0, 464.0, 465.0, 466.0, 465.0, 465.0, 464.0, 465.0, 466.0, 467.0, 467.0, 464.0, 464.0, 465.0, 465.0, 465.0, 465.0, 466.0, 466.0, 464.0, 465.0, 463.0, 463.0, 464.0, 465.0, 464.0, 465.0, 465.0, 465.0, 464.0, 463.0, 463.0, 464.0, 466.0, 463.0, 463.0, 463.0, 462.0, 463.0, 463.0, 463.0, 462.0, 462.0, 463.0, 463.0, 464.0, 464.0, 464.0, 464.0, 464.0, 464.0, 463.0, 464.0, 463.0, 464.0, 465.0, 464.0, 463.0, 462.0, 462.0, 463.0, 464.0, 464.0, 464.0, 465.0, 463.0, 465.0, 466.0, 467.0, 465.0, 463.0, 462.0, 462.0, 463.0, 465.0, 465.0, 463.0, 464.0, 465.0, 465.0, 465.0, 464.0, 465.0, 464.0, 464.0, 465.0, 463.0, 464.0, 465.0, 465.0, 465.0, 465.0, 467.0, 467.0, 466.0, 465.0, 465.0, 464.0, 464.0, 465.0, 464.0, 463.0, 464.0, 464.0, 464.0, 463.0, 464.0, 465.0, 466.0, 466.0, 466.0, 467.0, 467.0, 467.0, 466.0, 467.0, 466.0, 466.0, 466.0, 466.0, 465.0],
      "WindowWidth": [991.0, 986.0, 984.0, 982.0, 976.0, 972.0, 974.0, 978.0, 983.0, 981.0, 982.0, 981.0, 975.0, 975.0, 975.0, 971.0, 970.0, 966.0, 968.0, 971.0, 969.0, 968.0, 969.0, 972.0, 971.0, 971.0, 972.0, 971.0, 970.0, 970.0, 972.0, 974.0, 976.0, 977.0, 976.0, 974.0, 975.0, 978.0, 975.0, 975.0, 973.0, 975.0, 977.0, 979.0, 978.0, 974.0, 973.0, 975.0, 975.0, 975.0, 975.0, 978.0, 976.0, 974.0, 976.0, 972.0, 971.0, 974.0, 974.0, 974.0, 975.0, 975.0, 975.0, 973.0, 972.0, 972.0, 974.0, 976.0, 972.0, 972.0, 971.0, 970.0, 972.0, 972.0, 972.0, 970.0, 970.0, 972.0, 972.0, 973.0, 973.0, 973.0, 972.0, 973.0, 973.0, 971.0, 973.0, 972.0, 974.0, 974.0, 973.0, 971.0, 969.0, 971.0, 971.0, 973.0, 974.0, 974.0, 975.0, 972.0, 974.0, 977.0, 978.0, 976.0, 972.0, 969.0, 970.0, 971.0, 975.0, 976.0, 972.0, 973.0, 975.0, 975.0, 974.0, 973.0, 975.0, 973.0, 974.0, 976.0, 972.0, 973.0, 975.0, 975.0, 975.0, 975.0, 978.0, 979.0, 977.0, 975.0, 975.0, 973.0, 973.0, 975.0, 973.0, 972.0, 972.0, 973.0, 974.0, 971.0, 973.0, 975.0, 976.0, 977.0, 977.0, 978.0, 979.0, 978.0, 978.0, 978.0, 977.0, 977.0, 978.0, 976.0, 975.0]
    },
    "slices": {}
  }
}