{
  "AcquisitionMatrixPE": 64,
  "AcquisitionNumber": 1,
  "AcquisitionTime": "19:41:25.692500",
  "BandwidthPerPixelPhaseEncode": 40.064,
  "BaseResolution": 64,
  "BodyPartExamined": "BRAIN",
  "ConsistencyInfo": "N4_VD13D_LATEST_20130810",
  "ConversionSoftware": "dcm2niix",
  "ConversionSoftwareVersion": "v1.0.20191031",
  "DerivedVendorReportedEchoSpacing": 0.000780002,
  "DeviceSerialNumber": "67007",
  "DwellTime": 5.3e-06,
  "EchoTime": 0.03,
  "EchoTrainLength": 31,
  "EffectiveEchoSpacing": 0.000390001,
  "FlipAngle": 75,
  "ImageOrientationPatientDICOM": [0.999918, 0.0125148, 0.00277053, -0.0122169, 0.995918, -0.0894372],
  "ImageType": [
    "ORIGINAL",
    "PRIMARY",
    "M",
    "ND",
    "NORM",
    "MOSAIC"
],
  "ImagingFrequency": 123.211,
  "InPlanePhaseEncodingDirectionDICOM": "ROW",
  "InstitutionAddress": "Perth_Drive_100_London_Ontario_CA_N6A_5K8",
  "InstitutionName": "Robarts_Research_Institute",
  "InstitutionalDepartmentName": "CFMM",
  "MRAcquisitionType": "2D",
  "MagneticFieldStrength": 3,
  "Manufacturer": "Siemens",
  "ManufacturersModelName": "Prisma_fit",
  "Modality": "MR",
  "ParallelReductionFactorInPlane": 2,
  "PartialFourier": 1,
  "PatientPosition": "HFS",
  "PercentPhaseFOV": 100,
  "PhaseEncodingDirection": "i",
  "PhaseEncodingSteps": 63,
  "PhaseResolution": 1,
  "PixelBandwidth": 1475,
  "ProcedureStepDescription": "Owen_Naci",
  "ProtocolName": "taken_RECOV",
  "PulseSequenceDetails": "%SiemensSeq%_ep2d_bold",
  "ReceiveCoilActiveElements": "HEA;HEP",
  "ReceiveCoilName": "Head_32",
  "ReconMatrixPE": 64,
  "RefLinesPE": 24,
  "RepetitionTime": 2,
  "SAR": 0.110708,
  "ScanOptions": "FS",
  "ScanningSequence": "EP",
  "SequenceName": "_epfid2d1_64",
  "SequenceVariant": "SK",
  "SeriesDescription": "taken_RECOV",
  "SeriesNumber": 20,
  "ShimSetting": [5232, -6187, -3725, 402, -34, -48, 164, 39],
  "SliceThickness": 3,
  "SliceTiming": [1.92, 1.86, 1.8, 1.74, 1.68, 1.62, 1.56, 1.5, 1.44, 1.38, 1.32, 1.26, 1.2, 1.14, 1.08, 1.02, 0.96, 0.9, 0.84, 0.78, 0.72, 0.66, 0.6, 0.54, 0.48, 0.42, 0.36, 0.3, 0.24, 0.18, 0.12, 0.06, 0],
  "SoftwareVersions": "syngo_MR_D13D",
  "SpacingBetweenSlices": 3.75,
  "StationName": "AWP67007",
  "TaskName": "audio",
  "TotalReadoutTime": 0.0245701,
  "TxRefAmp": 305.385,
  "dcmmeta_affine": [
    [-2.999753475189209, -0.036650728434324265, 0.014544394798576832, 96.53829193115234],
    [-0.03754435479640961, 2.987752676010132, -0.33523520827293396, -73.544921875],
    [0.008311583660542965, 0.2683117389678955, 3.734957456588745, -15.257863998413086],
    [0.0, 0.0, 0.0, 1.0]
],
  "dcmmeta_reorient_transform": [
    [0.0, -1.0, 0.0, 63.0],
    [1.0, 0.0, 0.0, 0.0],
    [0.0, 0.0, 1.0, 0.0],
    [0.0, 0.0, 0.0, 1.0]
],
  "dcmmeta_shape": [64, 64, 33, 155],
  "dcmmeta_slice_dim": 2,
  "dcmmeta_version": 0.6,
  "global": {
    "const": {
      "AcquisitionMatrix": [0, 64, 64, 0],
      "AngioFlag": "N",
      "BitsAllocated": 16,
      "BitsStored": 12,
      "BodyPartExamined": "BRAIN",
      "Columns": 384,
      "EchoNumbers": 1,
      "EchoTime": 30.0,
      "EchoTrainLength": 31,
      "FlipAngle": 75.0,
      "HighBit": 11,
      "ImageOrientationPatient": [0.99991784879056, 0.0125147850803, 0.00277052782863, -0.0122169090894, 0.99591752959904, -0.0894372482227],
      "ImagePositionPatient": [-568.32574940034, -598.73100236052, 43.245801801932],
      "ImageType": [
        "ORIGINAL",
        "PRIMARY",
        "M",
        "ND",
        "NORM",
        "MOSAIC"
],
      "ImagedNucleus": "1H",
      "ImagingFrequency": 123.210968,
      "InPlanePhaseEncodingDirection": "ROW",
      "MRAcquisitionType": "2D",
      "MagneticFieldStrength": 3.0,
      "Manufacturer": "SIEMENS",
      "ManufacturerModelName": "Prisma_fit",
      "Modality": "MR",
      "NumberOfAverages": 1.0,
      "NumberOfPhaseEncodingSteps": 63,
      "PercentPhaseFieldOfView": 100.0,
      "PercentSampling": 100.0,
      "PerformedProcedureStepStartTime": "174926.300000",
      "PhotometricInterpretation": "MONOCHROME2",
      "PixelBandwidth": 1475.0,
      "PixelRepresentation": 0,
      "PixelSpacing": [3.0, 3.0],
      "ProtocolName": "taken_RECOV",
      "RepetitionTime": 2000.0,
      "Rows": 384,
      "SAR": 0.11070843273823,
      "SamplesPerPixel": 1,
      "ScanOptions": "FS",
      "ScanningSequence": "EP",
      "SequenceName": "*epfid2d1_64",
      "SequenceVariant": "SK",
      "SeriesDescription": "taken_RECOV",
      "SeriesNumber": 20,
      "SeriesTime": "194130.525000",
      "SliceLocation": -8.2476085545625,
      "SliceThickness": 3.0,
      "SmallestImagePixelValue": 0,
      "SoftwareVersions": "syngo MR D13D",
      "SpacingBetweenSlices": 3.7500000810215,
      "SpecificCharacterSet": "ISO_IR 100",
      "StudyID": "1",
      "StudyTime": "174926.246000",
      "TimeOfLastCalibration": ["123723.000000", "123723.000000"],
      "TransmitCoilName": "Body",
      "VariableFlipAngleFlag": "N",
      "WindowCenterWidthExplanation": "Algo1",
      "dBdt": 0.0},
    "slices": {}
  },
  "time": {
    "samples": {
      "AcquisitionNumber": [1, 2, 3, 4, 5, 6, 7, 8, 9, 10, 11, 12, 13, 14, 15, 16, 17, 18, 19, 20, 21, 22, 23, 24, 25, 26, 27, 28, 29, 30, 31, 32, 33, 34, 35, 36, 37, 38, 39, 40, 41, 42, 43, 44, 45, 46, 47, 48, 49, 50, 51, 52, 53, 54, 55, 56, 57, 58, 59, 60, 61, 62, 63, 64, 65, 66, 67, 68, 69, 70, 71, 72, 73, 74, 75, 76, 77, 78, 79, 80, 81, 82, 83, 84, 85, 86, 87, 88, 89, 90, 91, 92, 93, 94, 95, 96, 97, 98, 99, 100, 101, 102, 103, 104, 105, 106, 107, 108, 109, 110, 111, 112, 113, 114, 115, 116, 117, 118, 119, 120, 121, 122, 123, 124, 125, 126, 127, 128, 129, 130, 131, 132, 133, 134, 135, 136, 137, 138, 139, 140, 141, 142, 143, 144, 145, 146, 147, 148, 149, 150, 151, 152, 153, 154, 155],
      "AcquisitionTime": ["194125.692500", "194127.692500", "194129.692500", "194131.692500", "194133.692500", "194135.692500", "194137.692500", "194139.692500", "194141.692500", "194143.692500", "194145.692500", "194147.692500", "194149.692500", "194151.692500", "194153.692500", "194155.692500", "194157.692500", "194159.692500", "194201.692500", "194203.692500", "194205.692500", "194207.692500", "194209.692500", "194211.692500", "194213.692500", "194215.692500", "194217.692500", "194219.692500", "194221.692500", "194223.692500", "194225.692500", "194227.692500", "194229.692500", "194231.692500", "194233.692500", "194235.692500", "194237.692500", "194239.692500", "194241.692500", "194243.692500", "194245.692500", "194247.692500", "194249.692500", "194251.692500", "194253.695000", "194255.695000", "194257.695000", "194259.695000", "194301.695000", "194303.695000", "194305.695000", "194307.695000", "194309.695000", "194311.695000", "194313.695000", "194315.695000", "194317.695000", "194319.695000", "194321.695000", "194323.695000", "194325.695000", "194327.695000", "194329.695000", "194331.695000", "194333.695000", "194335.695000", "194337.695000", "194339.695000", "194341.695000", "194343.695000", "194345.695000", "194347.695000", "194349.695000", "194351.695000", "194353.695000", "194355.695000", "194357.695000", "194359.695000", "194401.695000", "194403.695000", "194405.695000", "194407.695000", "194409.695000", "194411.695000", "194413.695000", "194415.695000", "194417.695000", "194419.695000", "194421.695000", "194423.695000", "194425.695000", "194427.695000", "194429.695000", "194431.695000", "194433.695000", "194435.695000", "194437.695000", "194439.695000", "194441.695000", "194443.695000", "194445.695000", "194447.695000", "194449.695000", "194451.695000", "194453.695000", "194455.695000", "194457.695000", "194459.695000", "194501.695000", "194503.695000", "194505.695000", "194507.695000", "194509.695000", "194511.695000", "194513.695000", "194515.695000", "194517.695000", "194519.695000", "194521.695000", "194523.695000", "194525.695000", "194527.695000", "194529.695000", "194531.695000", "194533.695000", "194535.695000", "194537.695000", "194539.695000", "194541.695000", "194543.695000", "194545.695000", "194547.695000", "194549.695000", "194551.695000", "194553.695000", "194555.695000", "194557.695000", "194559.695000", "194601.695000", "194603.695000", "194605.695000", "194607.695000", "194609.695000", "194611.695000", "194613.695000", "194615.695000", "194617.695000", "194619.695000", "194621.695000", "194623.695000", "194625.695000", "194627.695000", "194629.695000", "194631.695000", "194633.695000"],
      "ContentTime": ["194130.530000", "194130.534000", "194210.522000", "194210.526000", "194210.528000", "194210.536000", "194210.545000", "194210.547000", "194210.550000", "194210.553000", "194210.556000", "194210.559000", "194210.562000", "194210.564000", "194210.568000", "194210.571000", "194210.573000", "194210.576000", "194210.579000", "194210.582000", "194210.585000", "194210.588000", "194250.523000", "194250.526000", "194250.529000", "194250.532000", "194250.535000", "194250.538000", "194250.541000", "194250.544000", "194250.546000", "194250.549000", "194250.552000", "194250.555000", "194250.558000", "194250.561000", "194250.564000", "194250.567000", "194250.569000", "194250.572000", "194250.575000", "194250.578000", "194330.522000", "194330.525000", "194330.528000", "194330.531000", "194330.533000", "194330.536000", "194330.539000", "194330.542000", "194330.545000", "194330.547000", "194330.550000", "194330.553000", "194330.556000", "194330.559000", "194330.561000", "194330.565000", "194330.567000", "194330.570000", "194330.573000", "194330.576000", "194410.522000", "194410.525000", "194410.528000", "194410.532000", "194410.534000", "194410.537000", "194410.540000", "194410.543000", "194410.546000", "194410.548000", "194410.551000", "194410.554000", "194410.556000", "194410.559000", "194410.562000", "194410.565000", "194410.568000", "194410.571000", "194410.574000", "194410.577000", "194450.523000", "194450.526000", "194450.529000", "194450.532000", "194450.535000", "194450.538000", "194450.540000", "194450.543000", "194450.546000", "194450.549000", "194450.552000", "194450.555000", "194450.557000", "194450.560000", "194450.563000", "194450.566000", "194450.569000", "194450.572000", "194450.575000", "194450.578000", "194530.523000", "194530.526000", "194530.529000", "194530.532000", "194530.535000", "194530.538000", "194530.541000", "194530.544000", "194530.547000", "194530.549000", "194530.552000", "194530.555000", "194530.558000", "194530.561000", "194530.564000", "194530.567000", "194530.570000", "194530.573000", "194530.576000", "194530.579000", "194610.523000", "194610.526000", "194610.529000", "194610.532000", "194610.535000", "194610.538000", "194610.541000", "194610.543000", "194610.546000", "194610.549000", "194610.552000", "194610.555000", "194610.558000", "194610.561000", "194610.563000", "194610.566000", "194610.569000", "194610.572000", "194610.575000", "194610.578000", "194634.915000", "194634.919000", "194634.922000", "194634.925000", "194634.928000", "194634.931000", "194634.935000", "194634.939000", "194634.942000", "194634.946000", "194634.951000", "194634.954000", "194634.957000"],
      "InstanceCreationTime": ["194130.530000", "194130.534000", "194210.522000", "194210.526000", "194210.528000", "194210.536000", "194210.545000", "194210.547000", "194210.550000", "194210.553000", "194210.556000", "194210.559000", "194210.562000", "194210.564000", "194210.568000", "194210.571000", "194210.573000", "194210.576000", "194210.579000", "194210.582000", "194210.585000", "194210.588000", "194250.523000", "194250.526000", "194250.529000", "194250.532000", "194250.535000", "194250.538000", "194250.541000", "194250.544000", "194250.546000", "194250.549000", "194250.552000", "194250.555000", "194250.558000", "194250.561000", "194250.564000", "194250.567000", "194250.569000", "194250.572000", "194250.575000", "194250.578000", "194330.522000", "194330.525000", "194330.528000", "194330.531000", "194330.533000", "194330.536000", "194330.539000", "194330.542000", "194330.545000", "194330.547000", "194330.550000", "194330.553000", "194330.556000", "194330.559000", "194330.561000", "194330.565000", "194330.567000", "194330.570000", "194330.573000", "194330.576000", "194410.522000", "194410.525000", "194410.528000", "194410.532000", "194410.534000", "194410.537000", "194410.540000", "194410.543000", "194410.546000", "194410.548000", "194410.551000", "194410.554000", "194410.556000", "194410.559000", "194410.562000", "194410.565000", "194410.568000", "194410.571000", "194410.574000", "194410.577000", "194450.523000", "194450.526000", "194450.529000", "194450.532000", "194450.535000", "194450.538000", "194450.540000", "194450.543000", "194450.546000", "194450.549000", "194450.552000", "194450.555000", "194450.557000", "194450.560000", "194450.563000", "194450.566000", "194450.569000", "194450.572000", "194450.575000", "194450.578000", "194530.523000", "194530.526000", "194530.529000", "194530.532000", "194530.535000", "194530.538000", "194530.541000", "194530.544000", "194530.547000", "194530.549000", "194530.552000", "194530.555000", "194530.558000", "194530.561000", "194530.564000", "194530.567000", "194530.570000", "194530.573000", "194530.576000", "194530.579000", "194610.523000", "194610.526000", "194610.529000", "194610.532000", "194610.535000", "194610.538000", "194610.541000", "194610.543000", "194610.546000", "194610.549000", "194610.552000", "194610.555000", "194610.558000", "194610.561000", "194610.563000", "194610.566000", "194610.569000", "194610.572000", "194610.575000", "194610.578000", "194634.915000", "194634.919000", "194634.922000", "194634.925000", "194634.928000", "194634.931000", "194634.935000", "194634.939000", "194634.942000", "194634.946000", "194634.951000", "194634.954000", "194634.957000"],
      "InstanceNumber": [1, 2, 3, 4, 5, 6, 7, 8, 9, 10, 11, 12, 13, 14, 15, 16, 17, 18, 19, 20, 21, 22, 23, 24, 25, 26, 27, 28, 29, 30, 31, 32, 33, 34, 35, 36, 37, 38, 39, 40, 41, 42, 43, 44, 45, 46, 47, 48, 49, 50, 51, 52, 53, 54, 55, 56, 57, 58, 59, 60, 61, 62, 63, 64, 65, 66, 67, 68, 69, 70, 71, 72, 73, 74, 75, 76, 77, 78, 79, 80, 81, 82, 83, 84, 85, 86, 87, 88, 89, 90, 91, 92, 93, 94, 95, 96, 97, 98, 99, 100, 101, 102, 103, 104, 105, 106, 107, 108, 109, 110, 111, 112, 113, 114, 115, 116, 117, 118, 119, 120, 121, 122, 123, 124, 125, 126, 127, 128, 129, 130, 131, 132, 133, 134, 135, 136, 137, 138, 139, 140, 141, 142, 143, 144, 145, 146, 147, 148, 149, 150, 151, 152, 153, 154, 155],
      "LargestImagePixelValue": [852, 865, 836, 837, 843, 829, 820, 832, 835, 847, 823, 851, 835, 826, 868, 833, 826, 830, 927, 947, 820, 827, 852, 829, 833, 1012, 830, 834, 868, 830, 863, 830, 843, 905, 823, 842, 863, 840, 892, 950, 893, 817, 834, 813, 826, 862, 860, 919, 877, 980, 820, 833, 859, 819, 829, 815, 844, 835, 853, 819, 833, 813, 850, 832, 820, 848, 842, 828, 823, 833, 812, 814, 823, 827, 1032, 824, 810, 845, 827, 848, 998, 924, 824, 818, 822, 838, 838, 819, 815, 833, 827, 820, 846, 816, 835, 827, 878, 837, 822, 816, 815, 836, 848, 849, 839, 821, 834, 832, 938, 840, 817, 826, 820, 829, 851, 832, 827, 824, 829, 817, 823, 822, 845, 827, 824, 831, 831, 826, 815, 988, 848, 895, 814, 818, 822, 814, 858, 828, 814, 813, 879, 929, 906, 868, 831, 813, 812, 823, 815, 864, 820, 815, 824, 822, 827],
      "WindowCenter": [460.0, 460.0, 460.0, 459.0, 459.0, 459.0, 459.0, 459.0, 459.0, 460.0, 459.0, 460.0, 460.0, 460.0, 460.0, 460.0, 461.0, 461.0, 461.0, 461.0, 459.0, 459.0, 460.0, 460.0, 460.0, 461.0, 459.0, 458.0, 460.0, 459.0, 461.0, 460.0, 461.0, 462.0, 461.0, 461.0, 462.0, 462.0, 463.0, 463.0, 461.0, 460.0, 460.0, 460.0, 460.0, 461.0, 462.0, 462.0, 460.0, 461.0, 459.0, 459.0, 460.0, 459.0, 459.0, 459.0, 460.0, 459.0, 459.0, 458.0, 459.0, 458.0, 460.0, 459.0, 460.0, 460.0, 460.0, 461.0, 460.0, 460.0, 459.0, 460.0, 461.0, 461.0, 462.0, 458.0, 459.0, 460.0, 460.0, 460.0, 461.0, 459.0, 458.0, 458.0, 459.0, 459.0, 459.0, 458.0, 458.0, 459.0, 458.0, 459.0, 459.0, 459.0, 459.0, 459.0, 459.0, 457.0, 457.0, 458.0, 458.0, 459.0, 459.0, 460.0, 459.0, 459.0, 460.0, 460.0, 461.0, 459.0, 458.0, 459.0, 459.0, 460.0, 461.0, 460.0, 460.0, 460.0, 459.0, 459.0, 458.0, 459.0, 459.0, 459.0, 459.0, 459.0, 460.0, 459.0, 460.0, 461.0, 459.0, 459.0, 457.0, 458.0, 457.0, 458.0, 459.0, 458.0, 457.0, 458.0, 459.0, 460.0, 458.0, 459.0, 459.0, 458.0, 458.0, 458.0, 458.0, 459.0, 458.0, 458.0, 458.0, 458.0, 459.0],
      "WindowWidth": [966.0, 967.0, 966.0, 965.0, 964.0, 964.0, 964.0, 964.0, 964.0, 966.0, 965.0, 965.0, 965.0, 965.0, 966.0, 966.0, 967.0, 967.0, 967.0, 967.0, 964.0, 964.0, 966.0, 967.0, 966.0, 967.0, 963.0, 963.0, 965.0, 964.0, 967.0, 967.0, 967.0, 969.0, 967.0, 968.0, 970.0, 970.0, 970.0, 970.0, 967.0, 966.0, 967.0, 966.0, 967.0, 968.0, 969.0, 969.0, 966.0, 968.0, 964.0, 965.0, 965.0, 964.0, 964.0, 964.0, 965.0, 964.0, 963.0, 963.0, 964.0, 963.0, 965.0, 964.0, 965.0, 966.0, 965.0, 967.0, 966.0, 967.0, 964.0, 965.0, 967.0, 967.0, 969.0, 963.0, 964.0, 966.0, 965.0, 967.0, 966.0, 964.0, 963.0, 963.0, 963.0, 964.0, 964.0, 963.0, 963.0, 964.0, 962.0, 963.0, 964.0, 964.0, 965.0, 963.0, 964.0, 961.0, 961.0, 962.0, 963.0, 964.0, 964.0, 965.0, 964.0, 964.0, 965.0, 965.0, 966.0, 964.0, 963.0, 964.0, 964.0, 966.0, 968.0, 966.0, 966.0, 966.0, 964.0, 964.0, 962.0, 964.0, 964.0, 964.0, 965.0, 964.0, 965.0, 964.0, 966.0, 967.0, 963.0, 964.0, 961.0, 961.0, 961.0, 962.0, 964.0, 961.0, 961.0, 962.0, 964.0, 966.0, 962.0, 964.0, 963.0, 962.0, 963.0, 962.0, 962.0, 963.0, 962.0, 962.0, 962.0, 961.0, 963.0]
    },
    "slices": {}
  }
}