{
  "AcquisitionMatrixPE": 64,
  "AcquisitionNumber": 6,
  "AcquisitionTime": "19:47:29.810000",
  "BandwidthPerPixelPhaseEncode": 40.064,
  "BaseResolution": 64,
  "BodyPartExamined": "BRAIN",
  "ConsistencyInfo": "N4_VD13D_LATEST_20130810",
  "ConversionSoftware": "dcm2niix",
  "ConversionSoftwareVersion": "v1.0.20191031",
  "DerivedVendorReportedEchoSpacing": 0.000780002,
  "DeviceSerialNumber": "67007",
  "DwellTime": 5.3e-06,
  "EchoTime": 0.03,
  "EchoTrainLength": 31,
  "EffectiveEchoSpacing": 0.000390001,
  "FlipAngle": 75,
  "ImageOrientationPatientDICOM": [0.999918, 0.0125148, 0.00277053, -0.0122169, 0.995918, -0.0894372],
  "ImageType": [
    "ORIGINAL",
    "PRIMARY",
    "M",
    "ND",
    "NORM",
    "MOSAIC"
],
  "ImagingFrequency": 123.211,
  "InPlanePhaseEncodingDirectionDICOM": "ROW",
  "InstitutionAddress": "Perth_Drive_100_London_Ontario_CA_N6A_5K8",
  "InstitutionName": "Robarts_Research_Institute",
  "InstitutionalDepartmentName": "CFMM",
  "MRAcquisitionType": "2D",
  "MagneticFieldStrength": 3,
  "Manufacturer": "Siemens",
  "ManufacturersModelName": "Prisma_fit",
  "Modality": "MR",
  "ParallelReductionFactorInPlane": 2,
  "PartialFourier": 1,
  "PatientPosition": "HFS",
  "PercentPhaseFOV": 100,
  "PhaseEncodingDirection": "i",
  "PhaseEncodingSteps": 63,
  "PhaseResolution": 1,
  "PixelBandwidth": 1475,
  "ProcedureStepDescription": "Owen_Naci",
  "ProtocolName": "Resting_State_RECOV",
  "PulseSequenceDetails": "%SiemensSeq%_ep2d_bold",
  "ReceiveCoilActiveElements": "HEA;HEP",
  "ReceiveCoilName": "Head_32",
  "ReconMatrixPE": 64,
  "RefLinesPE": 24,
  "RepetitionTime": 2,
  "SAR": 0.110914,
  "ScanOptions": "FS",
  "ScanningSequence": "EP",
  "SequenceName": "_epfid2d1_64",
  "SequenceVariant": "SK",
  "SeriesDescription": "Resting_State_RECOV",
  "SeriesNumber": 22,
  "ShimSetting": [5232, -6187, -3725, 402, -34, -48, 164, 39],
  "SliceThickness": 3,
  "SliceTiming": [1.92, 1.86, 1.8, 1.74, 1.68, 1.62, 1.56, 1.5, 1.44, 1.38, 1.32, 1.26, 1.2, 1.14, 1.08, 1.02, 0.96, 0.9, 0.84, 0.78, 0.72, 0.66, 0.6, 0.54, 0.48, 0.42, 0.36, 0.3, 0.24, 0.18, 0.12, 0.06, 0],
  "SoftwareVersions": "syngo_MR_D13D",
  "SpacingBetweenSlices": 3.75,
  "StationName": "AWP67007",
  "TaskName": "rest",
  "TotalReadoutTime": 0.0245701,
  "TxRefAmp": 305.385,
  "dcmmeta_affine": [
    [-2.999753475189209, -0.036650728434324265, 0.014544394798576832, 96.53829193115234],
    [-0.03754435479640961, 2.987752676010132, -0.33523520827293396, -73.544921875],
    [0.008311583660542965, 0.2683117389678955, 3.734957456588745, -15.257863998413086],
    [0.0, 0.0, 0.0, 1.0]
],
  "dcmmeta_reorient_transform": [
    [0.0, -1.0, 0.0, 63.0],
    [1.0, 0.0, 0.0, 0.0],
    [0.0, 0.0, 1.0, 0.0],
    [0.0, 0.0, 0.0, 1.0]
],
  "dcmmeta_shape": [64, 64, 33, 141],
  "dcmmeta_slice_dim": 2,
  "dcmmeta_version": 0.6,
  "global": {
    "const": {
      "AcquisitionMatrix": [0, 64, 64, 0],
      "AngioFlag": "N",
      "BitsAllocated": 16,
      "BitsStored": 12,
      "BodyPartExamined": "BRAIN",
      "Columns": 384,
      "EchoNumbers": 1,
      "EchoTime": 30.0,
      "EchoTrainLength": 31,
      "FlipAngle": 75.0,
      "HighBit": 11,
      "ImageOrientationPatient": [0.99991784879056, 0.0125147850803, 0.00277052782863, -0.0122169090894, 0.99591752959904, -0.0894372482227],
      "ImagePositionPatient": [-568.32574940034, -598.73100236052, 43.245801801932],
      "ImageType": [
        "ORIGINAL",
        "PRIMARY",
        "M",
        "ND",
        "NORM",
        "MOSAIC"
],
      "ImagedNucleus": "1H",
      "ImagingFrequency": 123.210962,
      "InPlanePhaseEncodingDirection": "ROW",
      "MRAcquisitionType": "2D",
      "MagneticFieldStrength": 3.0,
      "Manufacturer": "SIEMENS",
      "ManufacturerModelName": "Prisma_fit",
      "Modality": "MR",
      "NumberOfAverages": 1.0,
      "NumberOfPhaseEncodingSteps": 63,
      "PercentPhaseFieldOfView": 100.0,
      "PercentSampling": 100.0,
      "PerformedProcedureStepStartTime": "174926.300000",
      "PhotometricInterpretation": "MONOCHROME2",
      "PixelBandwidth": 1475.0,
      "PixelRepresentation": 0,
      "PixelSpacing": [3.0, 3.0],
      "ProtocolName": "Resting State_RECOV",
      "RepetitionTime": 2000.0,
      "Rows": 384,
      "SAR": 0.11091413656943,
      "SamplesPerPixel": 1,
      "ScanOptions": "FS",
      "ScanningSequence": "EP",
      "SequenceName": "*epfid2d1_64",
      "SequenceVariant": "SK",
      "SeriesDescription": "Resting State_RECOV",
      "SeriesNumber": 22,
      "SeriesTime": "194813.747000",
      "SliceLocation": -8.2476085545625,
      "SliceThickness": 3.0,
      "SmallestImagePixelValue": 0,
      "SoftwareVersions": "syngo MR D13D",
      "SpacingBetweenSlices": 3.7500000810215,
      "SpecificCharacterSet": "ISO_IR 100",
      "StudyID": "1",
      "StudyTime": "174926.246000",
      "TimeOfLastCalibration": ["123723.000000", "123723.000000"],
      "TransmitCoilName": "Body",
      "VariableFlipAngleFlag": "N",
      "WindowCenterWidthExplanation": "Algo1",
      "dBdt": 0.0},
    "slices": {}
  },
  "time": {
    "samples": {
      "AcquisitionNumber": [6, 7, 8, 11, 13, 15, 16, 17, 18, 19, 20, 21, 22, 24, 25, 27, 29, 30, 32, 34, 37, 38, 39, 40, 41, 42, 43, 44, 47, 48, 49, 52, 54, 55, 58, 59, 60, 61, 62, 65, 67, 70, 72, 73, 74, 75, 81, 86, 87, 88, 89, 90, 92, 94, 95, 96, 97, 98, 99, 101, 102, 106, 107, 108, 111, 113, 114, 116, 117, 119, 122, 123, 124, 125, 126, 127, 128, 129, 131, 132, 134, 136, 137, 139, 141, 143, 144, 146, 150, 151, 155, 156, 159, 160, 161, 163, 165, 167, 171, 172, 173, 175, 176, 177, 178, 179, 180, 181, 182, 185, 187, 190, 197, 201, 204, 205, 207, 211, 213, 214, 215, 216, 217, 219, 220, 221, 222, 223, 225, 226, 227, 229, 230, 231, 232, 236, 239, 244, 249, 255, 256],
      "AcquisitionTime": ["194729.810000", "194731.810000", "194733.810000", "194739.810000", "194743.810000", "194747.810000", "194749.810000", "194751.810000", "194753.810000", "194755.810000", "194757.810000", "194759.810000", "194801.810000", "194805.810000", "194807.810000", "194811.810000", "194815.810000", "194817.810000", "194821.810000", "194825.810000", "194831.810000", "194833.810000", "194835.810000", "194837.810000", "194839.810000", "194841.810000", "194843.810000", "194845.810000", "194851.810000", "194853.810000", "194855.810000", "194901.810000", "194905.810000", "194907.810000", "194913.810000", "194915.810000", "194917.810000", "194919.810000", "194921.810000", "194927.810000", "194931.810000", "194937.810000", "194941.810000", "194943.810000", "194945.810000", "194947.810000", "194959.810000", "195009.810000", "195011.810000", "195013.810000", "195015.810000", "195017.810000", "195021.810000", "195025.810000", "195027.810000", "195029.810000", "195031.810000", "195033.810000", "195035.810000", "195039.810000", "195041.810000", "195049.810000", "195051.810000", "195053.810000", "195059.810000", "195103.810000", "195105.810000", "195109.810000", "195111.810000", "195115.810000", "195121.810000", "195123.810000", "195125.810000", "195127.810000", "195129.810000", "195131.810000", "195133.810000", "195135.810000", "195139.810000", "195141.810000", "195145.810000", "195149.810000", "195151.810000", "195155.810000", "195159.810000", "195203.810000", "195205.810000", "195209.810000", "195217.810000", "195219.810000", "195227.810000", "195229.810000", "195235.810000", "195237.810000", "195239.810000", "195243.810000", "195247.810000", "195251.810000", "195259.810000", "195301.810000", "195303.810000", "195307.810000", "195309.810000", "195311.810000", "195313.810000", "195315.810000", "195317.810000", "195319.810000", "195321.810000", "195327.810000", "195331.810000", "195337.810000", "195351.810000", "195359.812500", "195405.812500", "195407.812500", "195411.812500", "195419.812500", "195423.812500", "195425.812500", "195427.812500", "195429.812500", "195431.812500", "195435.812500", "195437.812500", "195439.812500", "195441.812500", "195443.812500", "195447.812500", "195449.812500", "195451.812500", "195455.812500", "195457.812500", "195459.812500", "195501.812500", "195509.812500", "195515.812500", "195525.812500", "195535.812500", "195547.812500", "195549.812500"],
      "ContentTime": ["194813.771000", "194813.774000", "194813.777000", "194813.786000", "194813.792000", "194813.799000", "194813.802000", "194813.805000", "194813.807000", "194813.810000", "194813.813000", "194813.817000", "194813.820000", "194813.826000", "194813.833000", "194813.839000", "194853.747000", "194853.750000", "194853.756000", "194853.762000", "194853.771000", "194853.774000", "194853.777000", "194853.780000", "194853.783000", "194853.787000", "194853.789000", "194853.792000", "194853.801000", "194913.745000", "194913.749000", "194913.759000", "194913.765000", "194913.768000", "194953.745000", "194953.749000", "194953.752000", "194953.755000", "194953.758000", "194953.768000", "194953.774000", "194953.783000", "194953.789000", "194953.792000", "194953.795000", "194953.798000", "195033.754000", "195033.769000", "195033.773000", "195033.776000", "195033.779000", "195033.782000", "195033.788000", "195033.795000", "195033.798000", "195033.801000", "195033.804000", "195113.744000", "195113.747000", "195113.754000", "195113.757000", "195113.769000", "195113.772000", "195113.775000", "195113.784000", "195113.790000", "195113.793000", "195113.799000", "195113.802000", "195153.749000", "195153.758000", "195153.761000", "195153.764000", "195153.767000", "195153.770000", "195153.773000", "195153.776000", "195153.779000", "195153.785000", "195153.788000", "195153.794000", "195153.801000", "195153.804000", "195233.749000", "195233.755000", "195233.761000", "195233.764000", "195233.771000", "195233.783000", "195233.786000", "195233.800000", "195233.803000", "195313.748000", "195313.750000", "195313.753000", "195313.759000", "195313.765000", "195313.771000", "195313.782000", "195313.785000", "195313.788000", "195313.793000", "195313.796000", "195313.806000", "195353.745000", "195353.748000", "195353.751000", "195353.754000", "195353.757000", "195353.765000", "195353.770000", "195353.779000", "195353.799000", "195433.754000", "195433.763000", "195433.766000", "195433.771000", "195433.783000", "195433.789000", "195433.792000", "195433.795000", "195433.798000", "195433.801000", "195513.748000", "195513.750000", "195513.753000", "195513.756000", "195513.759000", "195513.765000", "195513.767000", "195513.770000", "195513.776000", "195513.779000", "195513.782000", "195513.785000", "195513.796000", "195550.176000", "195550.191000", "195550.213000", "195550.233000", "195550.235000"],
      "InstanceCreationTime": ["194813.771000", "194813.774000", "194813.777000", "194813.786000", "194813.792000", "194813.799000", "194813.802000", "194813.805000", "194813.807000", "194813.810000", "194813.813000", "194813.817000", "194813.820000", "194813.826000", "194813.833000", "194813.839000", "194853.747000", "194853.750000", "194853.756000", "194853.762000", "194853.771000", "194853.774000", "194853.777000", "194853.780000", "194853.783000", "194853.787000", "194853.789000", "194853.792000", "194853.801000", "194913.745000", "194913.749000", "194913.759000", "194913.765000", "194913.768000", "194953.745000", "194953.749000", "194953.752000", "194953.755000", "194953.758000", "194953.768000", "194953.774000", "194953.783000", "194953.789000", "194953.792000", "194953.795000", "194953.798000", "195033.754000", "195033.769000", "195033.773000", "195033.776000", "195033.779000", "195033.782000", "195033.788000", "195033.795000", "195033.798000", "195033.801000", "195033.804000", "195113.744000", "195113.747000", "195113.754000", "195113.757000", "195113.769000", "195113.772000", "195113.775000", "195113.784000", "195113.790000", "195113.793000", "195113.799000", "195113.802000", "195153.749000", "195153.758000", "195153.761000", "195153.764000", "195153.767000", "195153.770000", "195153.773000", "195153.776000", "195153.779000", "195153.785000", "195153.788000", "195153.794000", "195153.801000", "195153.804000", "195233.749000", "195233.755000", "195233.761000", "195233.764000", "195233.771000", "195233.783000", "195233.786000", "195233.800000", "195233.803000", "195313.748000", "195313.750000", "195313.753000", "195313.759000", "195313.765000", "195313.771000", "195313.782000", "195313.785000", "195313.788000", "195313.793000", "195313.796000", "195313.806000", "195353.745000", "195353.748000", "195353.751000", "195353.754000", "195353.757000", "195353.765000", "195353.770000", "195353.779000", "195353.799000", "195433.754000", "195433.763000", "195433.766000", "195433.771000", "195433.783000", "195433.789000", "195433.792000", "195433.795000", "195433.798000", "195433.801000", "195513.748000", "195513.750000", "195513.753000", "195513.756000", "195513.759000", "195513.765000", "195513.767000", "195513.770000", "195513.776000", "195513.779000", "195513.782000", "195513.785000", "195513.796000", "195550.176000", "195550.191000", "195550.213000", "195550.233000", "195550.235000"],
      "InstanceNumber": [6, 7, 8, 11, 13, 15, 16, 17, 18, 19, 20, 21, 22, 24, 25, 27, 29, 30, 32, 34, 37, 38, 39, 40, 41, 42, 43, 44, 47, 48, 49, 52, 54, 55, 58, 59, 60, 61, 62, 65, 67, 70, 72, 73, 74, 75, 81, 86, 87, 88, 89, 90, 92, 94, 95, 96, 97, 98, 99, 101, 102, 106, 107, 108, 111, 113, 114, 116, 117, 119, 122, 123, 124, 125, 126, 127, 128, 129, 131, 132, 134, 136, 137, 139, 141, 143, 144, 146, 150, 151, 155, 156, 159, 160, 161, 163, 165, 167, 171, 172, 173, 175, 176, 177, 178, 179, 180, 181, 182, 185, 187, 190, 197, 201, 204, 205, 207, 211, 213, 214, 215, 216, 217, 219, 220, 221, 222, 223, 225, 226, 227, 229, 230, 231, 232, 236, 239, 244, 249, 255, 256],
      "LargestImagePixelValue": [1028, 825, 823, 808, 815, 810, 921, 817, 1115, 827, 836, 813, 862, 804, 827, 828, 834, 826, 825, 847, 824, 834, 812, 825, 803, 828, 812, 810, 829, 908, 834, 826, 848, 836, 818, 834, 800, 836, 855, 820, 818, 816, 866, 814, 817, 833, 811, 826, 847, 888, 824, 815, 811, 852, 809, 922, 812, 799, 817, 814, 815, 822, 842, 814, 855, 830, 938, 798, 811, 797, 827, 822, 819, 815, 885, 860, 799, 806, 823, 806, 812, 828, 799, 806, 942, 814, 808, 816, 810, 805, 856, 812, 867, 813, 975, 857, 849, 876, 831, 798, 803, 841, 821, 820, 818, 892, 825, 815, 1031, 803, 818, 866, 819, 843, 824, 817, 799, 857, 830, 835, 857, 807, 911, 834, 914, 812, 805, 937, 844, 809, 811, 1037, 824, 814, 809, 807, 819, 838, 840, 943, 808],
      "WindowCenter": [465.0, 462.0, 462.0, 461.0, 461.0, 461.0, 464.0, 462.0, 464.0, 460.0, 460.0, 460.0, 460.0, 460.0, 461.0, 461.0, 461.0, 461.0, 461.0, 462.0, 461.0, 462.0, 461.0, 461.0, 460.0, 461.0, 461.0, 462.0, 463.0, 463.0, 461.0, 461.0, 462.0, 463.0, 462.0, 462.0, 461.0, 461.0, 462.0, 462.0, 462.0, 460.0, 461.0, 460.0, 461.0, 463.0, 461.0, 461.0, 462.0, 463.0, 462.0, 462.0, 461.0, 461.0, 461.0, 462.0, 461.0, 460.0, 461.0, 461.0, 460.0, 461.0, 461.0, 462.0, 463.0, 462.0, 464.0, 461.0, 461.0, 461.0, 461.0, 461.0, 462.0, 462.0, 464.0, 463.0, 462.0, 462.0, 462.0, 462.0, 462.0, 462.0, 461.0, 461.0, 463.0, 461.0, 460.0, 461.0, 462.0, 462.0, 463.0, 462.0, 464.0, 464.0, 465.0, 463.0, 462.0, 463.0, 461.0, 461.0, 461.0, 462.0, 461.0, 462.0, 462.0, 463.0, 462.0, 461.0, 463.0, 460.0, 461.0, 461.0, 461.0, 462.0, 461.0, 461.0, 461.0, 463.0, 463.0, 462.0, 463.0, 463.0, 464.0, 464.0, 464.0, 463.0, 462.0, 464.0, 462.0, 463.0, 463.0, 464.0, 461.0, 461.0, 461.0, 462.0, 461.0, 461.0, 462.0, 463.0, 461.0],
      "WindowWidth": [973.0, 969.0, 970.0, 968.0, 968.0, 969.0, 972.0, 969.0, 972.0, 966.0, 965.0, 966.0, 966.0, 967.0, 969.0, 967.0, 968.0, 968.0, 968.0, 970.0, 969.0, 970.0, 967.0, 967.0, 966.0, 968.0, 968.0, 969.0, 971.0, 972.0, 968.0, 969.0, 970.0, 971.0, 970.0, 969.0, 968.0, 968.0, 970.0, 970.0, 970.0, 967.0, 968.0, 967.0, 969.0, 971.0, 968.0, 967.0, 970.0, 971.0, 971.0, 969.0, 967.0, 968.0, 968.0, 970.0, 967.0, 967.0, 968.0, 967.0, 966.0, 968.0, 968.0, 969.0, 971.0, 970.0, 972.0, 968.0, 968.0, 968.0, 969.0, 968.0, 970.0, 970.0, 972.0, 971.0, 969.0, 969.0, 970.0, 969.0, 970.0, 969.0, 967.0, 969.0, 971.0, 967.0, 966.0, 968.0, 970.0, 971.0, 971.0, 970.0, 974.0, 974.0, 975.0, 971.0, 969.0, 971.0, 967.0, 968.0, 968.0, 969.0, 969.0, 969.0, 970.0, 971.0, 970.0, 968.0, 970.0, 967.0, 968.0, 968.0, 969.0, 969.0, 968.0, 968.0, 969.0, 971.0, 971.0, 970.0, 971.0, 971.0, 973.0, 972.0, 973.0, 971.0, 969.0, 973.0, 969.0, 971.0, 971.0, 973.0, 968.0, 968.0, 967.0, 970.0, 967.0, 967.0, 970.0, 971.0, 968.0]
    },
    "slices": {}
  }
}