{
  "AcquisitionMatrixPE": 64,
  "AcquisitionNumber": 1,
  "AcquisitionTime": "19:47:19.810000",
  "BandwidthPerPixelPhaseEncode": 40.064,
  "BaseResolution": 64,
  "BodyPartExamined": "BRAIN",
  "ConsistencyInfo": "N4_VD13D_LATEST_20130810",
  "ConversionSoftware": "dcm2niix",
  "ConversionSoftwareVersion": "v1.0.20191031",
  "DerivedVendorReportedEchoSpacing": 0.000780002,
  "DeviceSerialNumber": "67007",
  "DwellTime": 5.3e-06,
  "EchoTime": 0.03,
  "EchoTrainLength": 31,
  "EffectiveEchoSpacing": 0.000390001,
  "FlipAngle": 75,
  "ImageOrientationPatientDICOM": [0.999918, 0.0125148, 0.00277053, -0.0122169, 0.995918, -0.0894372],
  "ImageType": [
    "ORIGINAL",
    "PRIMARY",
    "M",
    "ND",
    "NORM",
    "MOSAIC"
],
  "ImagingFrequency": 123.211,
  "InPlanePhaseEncodingDirectionDICOM": "ROW",
  "InstitutionAddress": "Perth_Drive_100_London_Ontario_CA_N6A_5K8",
  "InstitutionName": "Robarts_Research_Institute",
  "InstitutionalDepartmentName": "CFMM",
  "MRAcquisitionType": "2D",
  "MagneticFieldStrength": 3,
  "Manufacturer": "Siemens",
  "ManufacturersModelName": "Prisma_fit",
  "Modality": "MR",
  "ParallelReductionFactorInPlane": 2,
  "PartialFourier": 1,
  "PatientPosition": "HFS",
  "PercentPhaseFOV": 100,
  "PhaseEncodingDirection": "i",
  "PhaseEncodingSteps": 63,
  "PhaseResolution": 1,
  "PixelBandwidth": 1475,
  "ProcedureStepDescription": "Owen_Naci",
  "ProtocolName": "Resting_State_RECOV",
  "PulseSequenceDetails": "%SiemensSeq%_ep2d_bold",
  "ReceiveCoilActiveElements": "HEA;HEP",
  "ReceiveCoilName": "Head_32",
  "ReconMatrixPE": 64,
  "RefLinesPE": 24,
  "RepetitionTime": 2,
  "SAR": 0.110914,
  "ScanOptions": "FS",
  "ScanningSequence": "EP",
  "SequenceName": "_epfid2d1_64",
  "SequenceVariant": "SK",
  "SeriesDescription": "Resting_State_RECOV",
  "SeriesNumber": 22,
  "ShimSetting": [5232, -6187, -3725, 402, -34, -48, 164, 39],
  "SliceThickness": 3,
  "SliceTiming": [1.92, 1.86, 1.8, 1.74, 1.68, 1.62, 1.56, 1.5, 1.44, 1.38, 1.32, 1.26, 1.2, 1.14, 1.08, 1.02, 0.96, 0.9, 0.84, 0.78, 0.72, 0.66, 0.6, 0.54, 0.48, 0.42, 0.36, 0.3, 0.24, 0.18, 0.12, 0.06, 0],
  "SoftwareVersions": "syngo_MR_D13D",
  "SpacingBetweenSlices": 3.75,
  "StationName": "AWP67007",
  "TaskName": "rest",
  "TotalReadoutTime": 0.0245701,
  "TxRefAmp": 305.385,
  "dcmmeta_affine": [
    [-2.999753475189209, -0.036650728434324265, 0.014544394798576832, 96.53829193115234],
    [-0.03754435479640961, 2.987752676010132, -0.33523520827293396, -73.544921875],
    [0.008311583660542965, 0.2683117389678955, 3.734957456588745, -15.257863998413086],
    [0.0, 0.0, 0.0, 1.0]
],
  "dcmmeta_reorient_transform": [
    [0.0, -1.0, 0.0, 63.0],
    [1.0, 0.0, 0.0, 0.0],
    [0.0, 0.0, 1.0, 0.0],
    [0.0, 0.0, 0.0, 1.0]
],
  "dcmmeta_shape": [64, 64, 33, 256],
  "dcmmeta_slice_dim": 2,
  "dcmmeta_version": 0.6,
  "global": {
    "const": {
      "AcquisitionMatrix": [0, 64, 64, 0],
      "AngioFlag": "N",
      "BitsAllocated": 16,
      "BitsStored": 12,
      "BodyPartExamined": "BRAIN",
      "Columns": 384,
      "EchoNumbers": 1,
      "EchoTime": 30.0,
      "EchoTrainLength": 31,
      "FlipAngle": 75.0,
      "HighBit": 11,
      "ImageOrientationPatient": [0.99991784879056, 0.0125147850803, 0.00277052782863, -0.0122169090894, 0.99591752959904, -0.0894372482227],
      "ImagePositionPatient": [-568.32574940034, -598.73100236052, 43.245801801932],
      "ImageType": [
        "ORIGINAL",
        "PRIMARY",
        "M",
        "ND",
        "NORM",
        "MOSAIC"
],
      "ImagedNucleus": "1H",
      "ImagingFrequency": 123.210962,
      "InPlanePhaseEncodingDirection": "ROW",
      "MRAcquisitionType": "2D",
      "MagneticFieldStrength": 3.0,
      "Manufacturer": "SIEMENS",
      "ManufacturerModelName": "Prisma_fit",
      "Modality": "MR",
      "NumberOfAverages": 1.0,
      "NumberOfPhaseEncodingSteps": 63,
      "PercentPhaseFieldOfView": 100.0,
      "PercentSampling": 100.0,
      "PerformedProcedureStepStartTime": "174926.300000",
      "PhotometricInterpretation": "MONOCHROME2",
      "PixelBandwidth": 1475.0,
      "PixelRepresentation": 0,
      "PixelSpacing": [3.0, 3.0],
      "ProtocolName": "Resting State_RECOV",
      "RepetitionTime": 2000.0,
      "Rows": 384,
      "SAR": 0.11091413656943,
      "SamplesPerPixel": 1,
      "ScanOptions": "FS",
      "ScanningSequence": "EP",
      "SequenceName": "*epfid2d1_64",
      "SequenceVariant": "SK",
      "SeriesDescription": "Resting State_RECOV",
      "SeriesNumber": 22,
      "SeriesTime": "194813.747000",
      "SliceLocation": -8.2476085545625,
      "SliceThickness": 3.0,
      "SmallestImagePixelValue": 0,
      "SoftwareVersions": "syngo MR D13D",
      "SpacingBetweenSlices": 3.7500000810215,
      "SpecificCharacterSet": "ISO_IR 100",
      "StudyID": "1",
      "StudyTime": "174926.246000",
      "TimeOfLastCalibration": ["123723.000000", "123723.000000"],
      "TransmitCoilName": "Body",
      "VariableFlipAngleFlag": "N",
      "WindowCenterWidthExplanation": "Algo1",
      "dBdt": 0.0},
    "slices": {}
  },
  "time": {
    "samples": {
      "AcquisitionNumber": [1, 2, 3, 4, 5, 6, 7, 8, 9, 10, 11, 12, 13, 14, 15, 16, 17, 18, 19, 20, 21, 22, 23, 24, 25, 26, 27, 28, 29, 30, 31, 32, 33, 34, 35, 36, 37, 38, 39, 40, 41, 42, 43, 44, 45, 46, 47, 48, 49, 50, 51, 52, 53, 54, 55, 56, 57, 58, 59, 60, 61, 62, 63, 64, 65, 66, 67, 68, 69, 70, 71, 72, 73, 74, 75, 76, 77, 78, 79, 80, 81, 82, 83, 84, 85, 86, 87, 88, 89, 90, 91, 92, 93, 94, 95, 96, 97, 98, 99, 100, 101, 102, 103, 104, 105, 106, 107, 108, 109, 110, 111, 112, 113, 114, 115, 116, 117, 118, 119, 120, 121, 122, 123, 124, 125, 126, 127, 128, 129, 130, 131, 132, 133, 134, 135, 136, 137, 138, 139, 140, 141, 142, 143, 144, 145, 146, 147, 148, 149, 150, 151, 152, 153, 154, 155, 156, 157, 158, 159, 160, 161, 162, 163, 164, 165, 166, 167, 168, 169, 170, 171, 172, 173, 174, 175, 176, 177, 178, 179, 180, 181, 182, 183, 184, 185, 186, 187, 188, 189, 190, 191, 192, 193, 194, 195, 196, 197, 198, 199, 200, 201, 202, 203, 204, 205, 206, 207, 208, 209, 210, 211, 212, 213, 214, 215, 216, 217, 218, 219, 220, 221, 222, 223, 224, 225, 226, 227, 228, 229, 230, 231, 232, 233, 234, 235, 236, 237, 238, 239, 240, 241, 242, 243, 244, 245, 246, 247, 248, 249, 250, 251, 252, 253, 254, 255, 256],
      "AcquisitionTime": ["194719.810000", "194721.810000", "194723.810000", "194725.810000", "194727.810000", "194729.810000", "194731.810000", "194733.810000", "194735.810000", "194737.810000", "194739.810000", "194741.810000", "194743.810000", "194745.810000", "194747.810000", "194749.810000", "194751.810000", "194753.810000", "194755.810000", "194757.810000", "194759.810000", "194801.810000", "194803.810000", "194805.810000", "194807.810000", "194809.810000", "194811.810000", "194813.810000", "194815.810000", "194817.810000", "194819.810000", "194821.810000", "194823.810000", "194825.810000", "194827.810000", "194829.810000", "194831.810000", "194833.810000", "194835.810000", "194837.810000", "194839.810000", "194841.810000", "194843.810000", "194845.810000", "194847.810000", "194849.810000", "194851.810000", "194853.810000", "194855.810000", "194857.810000", "194859.810000", "194901.810000", "194903.810000", "194905.810000", "194907.810000", "194909.810000", "194911.810000", "194913.810000", "194915.810000", "194917.810000", "194919.810000", "194921.810000", "194923.810000", "194925.810000", "194927.810000", "194929.810000", "194931.810000", "194933.810000", "194935.810000", "194937.810000", "194939.810000", "194941.810000", "194943.810000", "194945.810000", "194947.810000", "194949.810000", "194951.810000", "194953.810000", "194955.810000", "194957.810000", "194959.810000", "195001.810000", "195003.810000", "195005.810000", "195007.810000", "195009.810000", "195011.810000", "195013.810000", "195015.810000", "195017.810000", "195019.810000", "195021.810000", "195023.810000", "195025.810000", "195027.810000", "195029.810000", "195031.810000", "195033.810000", "195035.810000", "195037.810000", "195039.810000", "195041.810000", "195043.810000", "195045.810000", "195047.810000", "195049.810000", "195051.810000", "195053.810000", "195055.810000", "195057.810000", "195059.810000", "195101.810000", "195103.810000", "195105.810000", "195107.810000", "195109.810000", "195111.810000", "195113.810000", "195115.810000", "195117.810000", "195119.810000", "195121.810000", "195123.810000", "195125.810000", "195127.810000", "195129.810000", "195131.810000", "195133.810000", "195135.810000", "195137.810000", "195139.810000", "195141.810000", "195143.810000", "195145.810000", "195147.810000", "195149.810000", "195151.810000", "195153.810000", "195155.810000", "195157.810000", "195159.810000", "195201.810000", "195203.810000", "195205.810000", "195207.810000", "195209.810000", "195211.810000", "195213.810000", "195215.810000", "195217.810000", "195219.810000", "195221.810000", "195223.810000", "195225.810000", "195227.810000", "195229.810000", "195231.810000", "195233.810000", "195235.810000", "195237.810000", "195239.810000", "195241.810000", "195243.810000", "195245.810000", "195247.810000", "195249.810000", "195251.810000", "195253.810000", "195255.810000", "195257.810000", "195259.810000", "195301.810000", "195303.810000", "195305.810000", "195307.810000", "195309.810000", "195311.810000", "195313.810000", "195315.810000", "195317.810000", "195319.810000", "195321.810000", "195323.810000", "195325.810000", "195327.810000", "195329.810000", "195331.810000", "195333.810000", "195335.810000", "195337.810000", "195339.810000", "195341.810000", "195343.810000", "195345.810000", "195347.810000", "195349.810000", "195351.810000", "195353.812500", "195355.812500", "195357.812500", "195359.812500", "195401.812500", "195403.812500", "195405.812500", "195407.812500", "195409.812500", "195411.812500", "195413.812500", "195415.812500", "195417.812500", "195419.812500", "195421.812500", "195423.812500", "195425.812500", "195427.812500", "195429.812500", "195431.812500", "195433.812500", "195435.812500", "195437.812500", "195439.812500", "195441.812500", "195443.812500", "195445.812500", "195447.812500", "195449.812500", "195451.812500", "195453.812500", "195455.812500", "195457.812500", "195459.812500", "195501.812500", "195503.812500", "195505.812500", "195507.812500", "195509.812500", "195511.812500", "195513.812500", "195515.812500", "195517.812500", "195519.812500", "195521.812500", "195523.812500", "195525.812500", "195527.812500", "195529.812500", "195531.812500", "195533.812500", "195535.812500", "195537.812500", "195539.812500", "195541.812500", "195543.812500", "195545.812500", "195547.812500", "195549.812500"],
      "ContentTime": ["194813.752000", "194813.759000", "194813.762000", "194813.765000", "194813.768000", "194813.771000", "194813.774000", "194813.777000", "194813.780000", "194813.783000", "194813.786000", "194813.789000", "194813.792000", "194813.795000", "194813.799000", "194813.802000", "194813.805000", "194813.807000", "194813.810000", "194813.813000", "194813.817000", "194813.820000", "194813.823000", "194813.826000", "194813.833000", "194813.836000", "194813.839000", "194853.744000", "194853.747000", "194853.750000", "194853.753000", "194853.756000", "194853.759000", "194853.762000", "194853.765000", "194853.768000", "194853.771000", "194853.774000", "194853.777000", "194853.780000", "194853.783000", "194853.787000", "194853.789000", "194853.792000", "194853.795000", "194853.798000", "194853.801000", "194913.745000", "194913.749000", "194913.752000", "194913.755000", "194913.759000", "194913.762000", "194913.765000", "194913.768000", "194913.771000", "194913.774000", "194953.745000", "194953.749000", "194953.752000", "194953.755000", "194953.758000", "194953.762000", "194953.765000", "194953.768000", "194953.771000", "194953.774000", "194953.777000", "194953.780000", "194953.783000", "194953.786000", "194953.789000", "194953.792000", "194953.795000", "194953.798000", "194953.801000", "194953.804000", "195033.744000", "195033.748000", "195033.751000", "195033.754000", "195033.757000", "195033.760000", "195033.763000", "195033.766000", "195033.769000", "195033.773000", "195033.776000", "195033.779000", "195033.782000", "195033.785000", "195033.788000", "195033.792000", "195033.795000", "195033.798000", "195033.801000", "195033.804000", "195113.744000", "195113.747000", "195113.750000", "195113.754000", "195113.757000", "195113.760000", "195113.763000", "195113.766000", "195113.769000", "195113.772000", "195113.775000", "195113.778000", "195113.781000", "195113.784000", "195113.787000", "195113.790000", "195113.793000", "195113.796000", "195113.799000", "195113.802000", "195153.745000", "195153.749000", "195153.752000", "195153.755000", "195153.758000", "195153.761000", "195153.764000", "195153.767000", "195153.770000", "195153.773000", "195153.776000", "195153.779000", "195153.782000", "195153.785000", "195153.788000", "195153.791000", "195153.794000", "195153.798000", "195153.801000", "195153.804000", "195233.745000", "195233.749000", "195233.752000", "195233.755000", "195233.758000", "195233.761000", "195233.764000", "195233.767000", "195233.771000", "195233.774000", "195233.777000", "195233.780000", "195233.783000", "195233.786000", "195233.790000", "195233.793000", "195233.796000", "195233.800000", "195233.803000", "195233.806000", "195313.744000", "195313.748000", "195313.750000", "195313.753000", "195313.756000", "195313.759000", "195313.762000", "195313.765000", "195313.768000", "195313.771000", "195313.773000", "195313.776000", "195313.779000", "195313.782000", "195313.785000", "195313.788000", "195313.790000", "195313.793000", "195313.796000", "195313.806000", "195353.745000", "195353.748000", "195353.751000", "195353.754000", "195353.757000", "195353.759000", "195353.762000", "195353.765000", "195353.768000", "195353.770000", "195353.773000", "195353.776000", "195353.779000", "195353.782000", "195353.784000", "195353.787000", "195353.790000", "195353.793000", "195353.796000", "195353.799000", "195433.745000", "195433.749000", "195433.752000", "195433.754000", "195433.757000", "195433.760000", "195433.763000", "195433.766000", "195433.768000", "195433.771000", "195433.774000", "195433.777000", "195433.780000", "195433.783000", "195433.786000", "195433.789000", "195433.792000", "195433.795000", "195433.798000", "195433.801000", "195513.744000", "195513.748000", "195513.750000", "195513.753000", "195513.756000", "195513.759000", "195513.762000", "195513.765000", "195513.767000", "195513.770000", "195513.773000", "195513.776000", "195513.779000", "195513.782000", "195513.785000", "195513.788000", "195513.790000", "195513.793000", "195513.796000", "195513.799000", "195550.168000", "195550.176000", "195550.179000", "195550.181000", "195550.185000", "195550.188000", "195550.191000", "195550.195000", "195550.200000", "195550.203000", "195550.209000", "195550.213000", "195550.216000", "195550.219000", "195550.222000", "195550.225000", "195550.229000", "195550.233000", "195550.235000"],
      "InstanceCreationTime": ["194813.752000", "194813.759000", "194813.762000", "194813.765000", "194813.768000", "194813.771000", "194813.774000", "194813.777000", "194813.780000", "194813.783000", "194813.786000", "194813.789000", "194813.792000", "194813.795000", "194813.799000", "194813.802000", "194813.805000", "194813.807000", "194813.810000", "194813.813000", "194813.817000", "194813.820000", "194813.823000", "194813.826000", "194813.833000", "194813.836000", "194813.839000", "194853.744000", "194853.747000", "194853.750000", "194853.753000", "194853.756000", "194853.759000", "194853.762000", "194853.765000", "194853.768000", "194853.771000", "194853.774000", "194853.777000", "194853.780000", "194853.783000", "194853.787000", "194853.789000", "194853.792000", "194853.795000", "194853.798000", "194853.801000", "194913.745000", "194913.749000", "194913.752000", "194913.755000", "194913.759000", "194913.762000", "194913.765000", "194913.768000", "194913.771000", "194913.774000", "194953.745000", "194953.749000", "194953.752000", "194953.755000", "194953.758000", "194953.762000", "194953.765000", "194953.768000", "194953.771000", "194953.774000", "194953.777000", "194953.780000", "194953.783000", "194953.786000", "194953.789000", "194953.792000", "194953.795000", "194953.798000", "194953.801000", "194953.804000", "195033.744000", "195033.748000", "195033.751000", "195033.754000", "195033.757000", "195033.760000", "195033.763000", "195033.766000", "195033.769000", "195033.773000", "195033.776000", "195033.779000", "195033.782000", "195033.785000", "195033.788000", "195033.792000", "195033.795000", "195033.798000", "195033.801000", "195033.804000", "195113.744000", "195113.747000", "195113.750000", "195113.754000", "195113.757000", "195113.760000", "195113.763000", "195113.766000", "195113.769000", "195113.772000", "195113.775000", "195113.778000", "195113.781000", "195113.784000", "195113.787000", "195113.790000", "195113.793000", "195113.796000", "195113.799000", "195113.802000", "195153.745000", "195153.749000", "195153.752000", "195153.755000", "195153.758000", "195153.761000", "195153.764000", "195153.767000", "195153.770000", "195153.773000", "195153.776000", "195153.779000", "195153.782000", "195153.785000", "195153.788000", "195153.791000", "195153.794000", "195153.798000", "195153.801000", "195153.804000", "195233.745000", "195233.749000", "195233.752000", "195233.755000", "195233.758000", "195233.761000", "195233.764000", "195233.767000", "195233.771000", "195233.774000", "195233.777000", "195233.780000", "195233.783000", "195233.786000", "195233.790000", "195233.793000", "195233.796000", "195233.800000", "195233.803000", "195233.806000", "195313.744000", "195313.748000", "195313.750000", "195313.753000", "195313.756000", "195313.759000", "195313.762000", "195313.765000", "195313.768000", "195313.771000", "195313.773000", "195313.776000", "195313.779000", "195313.782000", "195313.785000", "195313.788000", "195313.790000", "195313.793000", "195313.796000", "195313.806000", "195353.745000", "195353.748000", "195353.751000", "195353.754000", "195353.757000", "195353.759000", "195353.762000", "195353.765000", "195353.768000", "195353.770000", "195353.773000", "195353.776000", "195353.779000", "195353.782000", "195353.784000", "195353.787000", "195353.790000", "195353.793000", "195353.796000", "195353.799000", "195433.745000", "195433.749000", "195433.752000", "195433.754000", "195433.757000", "195433.760000", "195433.763000", "195433.766000", "195433.768000", "195433.771000", "195433.774000", "195433.777000", "195433.780000", "195433.783000", "195433.786000", "195433.789000", "195433.792000", "195433.795000", "195433.798000", "195433.801000", "195513.744000", "195513.748000", "195513.750000", "195513.753000", "195513.756000", "195513.759000", "195513.762000", "195513.765000", "195513.767000", "195513.770000", "195513.773000", "195513.776000", "195513.779000", "195513.782000", "195513.785000", "195513.788000", "195513.790000", "195513.793000", "195513.796000", "195513.799000", "195550.168000", "195550.176000", "195550.179000", "195550.181000", "195550.185000", "195550.188000", "195550.191000", "195550.195000", "195550.200000", "195550.203000", "195550.209000", "195550.213000", "195550.216000", "195550.219000", "195550.222000", "195550.225000", "195550.229000", "195550.233000", "195550.235000"],
      "InstanceNumber": [1, 2, 3, 4, 5, 6, 7, 8, 9, 10, 11, 12, 13, 14, 15, 16, 17, 18, 19, 20, 21, 22, 23, 24, 25, 26, 27, 28, 29, 30, 31, 32, 33, 34, 35, 36, 37, 38, 39, 40, 41, 42, 43, 44, 45, 46, 47, 48, 49, 50, 51, 52, 53, 54, 55, 56, 57, 58, 59, 60, 61, 62, 63, 64, 65, 66, 67, 68, 69, 70, 71, 72, 73, 74, 75, 76, 77, 78, 79, 80, 81, 82, 83, 84, 85, 86, 87, 88, 89, 90, 91, 92, 93, 94, 95, 96, 97, 98, 99, 100, 101, 102, 103, 104, 105, 106, 107, 108, 109, 110, 111, 112, 113, 114, 115, 116, 117, 118, 119, 120, 121, 122, 123, 124, 125, 126, 127, 128, 129, 130, 131, 132, 133, 134, 135, 136, 137, 138, 139, 140, 141, 142, 143, 144, 145, 146, 147, 148, 149, 150, 151, 152, 153, 154, 155, 156, 157, 158, 159, 160, 161, 162, 163, 164, 165, 166, 167, 168, 169, 170, 171, 172, 173, 174, 175, 176, 177, 178, 179, 180, 181, 182, 183, 184, 185, 186, 187, 188, 189, 190, 191, 192, 193, 194, 195, 196, 197, 198, 199, 200, 201, 202, 203, 204, 205, 206, 207, 208, 209, 210, 211, 212, 213, 214, 215, 216, 217, 218, 219, 220, 221, 222, 223, 224, 225, 226, 227, 228, 229, 230, 231, 232, 233, 234, 235, 236, 237, 238, 239, 240, 241, 242, 243, 244, 245, 246, 247, 248, 249, 250, 251, 252, 253, 254, 255, 256],
      "LargestImagePixelValue": [858, 822, 826, 876, 807, 1028, 825, 823, 826, 843, 808, 848, 815, 830, 810, 921, 817, 1115, 827, 836, 813, 862, 810, 804, 827, 831, 828, 867, 834, 826, 808, 825, 808, 847, 862, 941, 824, 834, 812, 825, 803, 828, 812, 810, 806, 818, 829, 908, 834, 864, 808, 826, 813, 848, 836, 802, 890, 818, 834, 800, 836, 855, 823, 810, 820, 871, 818, 972, 920, 816, 836, 866, 814, 817, 833, 809, 1092, 815, 827, 803, 811, 882, 832, 808, 838, 826, 847, 888, 824, 815, 822, 811, 815, 852, 809, 922, 812, 799, 817, 823, 814, 815, 825, 822, 806, 822, 842, 814, 826, 852, 855, 817, 830, 938, 810, 798, 811, 800, 797, 825, 799, 827, 822, 819, 815, 885, 860, 799, 806, 800, 823, 806, 814, 812, 837, 828, 799, 825, 806, 909, 942, 843, 814, 808, 882, 816, 815, 813, 830, 810, 805, 900, 821, 815, 856, 812, 821, 873, 867, 813, 975, 830, 857, 826, 849, 810, 876, 837, 797, 915, 831, 798, 803, 863, 841, 821, 820, 818, 892, 825, 815, 1031, 824, 800, 803, 797, 818, 818, 818, 866, 821, 842, 842, 851, 809, 866, 819, 832, 825, 821, 843, 816, 816, 824, 817, 851, 799, 861, 809, 822, 857, 833, 830, 835, 857, 807, 911, 814, 834, 914, 812, 805, 937, 807, 844, 809, 811, 795, 1037, 824, 814, 809, 843, 818, 838, 807, 1047, 815, 819, 814, 915, 842, 813, 838, 853, 825, 806, 922, 840, 820, 1064, 808, 850, 843, 943, 808],
      "WindowCenter": [462.0, 462.0, 463.0, 464.0, 462.0, 465.0, 462.0, 462.0, 462.0, 462.0, 461.0, 461.0, 461.0, 462.0, 461.0, 464.0, 462.0, 464.0, 460.0, 460.0, 460.0, 460.0, 461.0, 460.0, 461.0, 461.0, 461.0, 461.0, 461.0, 461.0, 461.0, 461.0, 461.0, 462.0, 463.0, 463.0, 461.0, 462.0, 461.0, 461.0, 460.0, 461.0, 461.0, 462.0, 462.0, 462.0, 463.0, 463.0, 461.0, 461.0, 461.0, 461.0, 462.0, 462.0, 463.0, 462.0, 464.0, 462.0, 462.0, 461.0, 461.0, 462.0, 461.0, 463.0, 462.0, 464.0, 462.0, 463.0, 462.0, 460.0, 460.0, 461.0, 460.0, 461.0, 463.0, 462.0, 465.0, 461.0, 461.0, 460.0, 461.0, 462.0, 461.0, 460.0, 461.0, 461.0, 462.0, 463.0, 462.0, 462.0, 462.0, 461.0, 461.0, 461.0, 461.0, 462.0, 461.0, 460.0, 461.0, 460.0, 461.0, 460.0, 461.0, 461.0, 461.0, 461.0, 461.0, 462.0, 462.0, 464.0, 463.0, 463.0, 462.0, 464.0, 462.0, 461.0, 461.0, 460.0, 461.0, 461.0, 461.0, 461.0, 461.0, 462.0, 462.0, 464.0, 463.0, 462.0, 462.0, 461.0, 462.0, 462.0, 462.0, 462.0, 462.0, 462.0, 461.0, 462.0, 461.0, 463.0, 463.0, 461.0, 461.0, 460.0, 462.0, 461.0, 462.0, 462.0, 462.0, 462.0, 462.0, 463.0, 463.0, 463.0, 463.0, 462.0, 462.0, 463.0, 464.0, 464.0, 465.0, 463.0, 463.0, 462.0, 462.0, 462.0, 463.0, 462.0, 461.0, 463.0, 461.0, 461.0, 461.0, 461.0, 462.0, 461.0, 462.0, 462.0, 463.0, 462.0, 461.0, 463.0, 461.0, 460.0, 460.0, 461.0, 461.0, 461.0, 461.0, 461.0, 461.0, 462.0, 462.0, 461.0, 460.0, 461.0, 461.0, 462.0, 462.0, 462.0, 462.0, 462.0, 461.0, 461.0, 461.0, 462.0, 461.0, 462.0, 462.0, 463.0, 463.0, 463.0, 463.0, 462.0, 463.0, 463.0, 464.0, 463.0, 464.0, 464.0, 463.0, 462.0, 464.0, 462.0, 462.0, 463.0, 463.0, 463.0, 464.0, 461.0, 461.0, 461.0, 463.0, 462.0, 463.0, 462.0, 464.0, 461.0, 461.0, 460.0, 461.0, 461.0, 460.0, 461.0, 461.0, 461.0, 461.0, 463.0, 462.0, 462.0, 465.0, 461.0, 461.0, 461.0, 463.0, 461.0],
      "WindowWidth": [970.0, 970.0, 972.0, 974.0, 971.0, 973.0, 969.0, 970.0, 969.0, 969.0, 968.0, 969.0, 968.0, 969.0, 969.0, 972.0, 969.0, 972.0, 966.0, 965.0, 966.0, 966.0, 967.0, 967.0, 969.0, 968.0, 967.0, 967.0, 968.0, 968.0, 967.0, 968.0, 968.0, 970.0, 971.0, 970.0, 969.0, 970.0, 967.0, 967.0, 966.0, 968.0, 968.0, 969.0, 969.0, 970.0, 971.0, 972.0, 968.0, 968.0, 968.0, 969.0, 969.0, 970.0, 971.0, 969.0, 973.0, 970.0, 969.0, 968.0, 968.0, 970.0, 968.0, 971.0, 970.0, 973.0, 970.0, 971.0, 969.0, 967.0, 967.0, 968.0, 967.0, 969.0, 971.0, 969.0, 973.0, 967.0, 967.0, 966.0, 968.0, 969.0, 968.0, 965.0, 967.0, 967.0, 970.0, 971.0, 971.0, 969.0, 969.0, 967.0, 968.0, 968.0, 968.0, 970.0, 967.0, 967.0, 968.0, 967.0, 967.0, 966.0, 967.0, 967.0, 967.0, 968.0, 968.0, 969.0, 970.0, 972.0, 971.0, 971.0, 970.0, 972.0, 969.0, 968.0, 968.0, 966.0, 968.0, 967.0, 968.0, 969.0, 968.0, 970.0, 970.0, 972.0, 971.0, 969.0, 969.0, 968.0, 970.0, 969.0, 969.0, 970.0, 970.0, 969.0, 967.0, 970.0, 969.0, 972.0, 971.0, 968.0, 967.0, 966.0, 969.0, 968.0, 969.0, 969.0, 969.0, 970.0, 971.0, 972.0, 972.0, 971.0, 971.0, 970.0, 971.0, 972.0, 974.0, 974.0, 975.0, 971.0, 971.0, 970.0, 969.0, 970.0, 971.0, 970.0, 969.0, 970.0, 967.0, 968.0, 968.0, 968.0, 969.0, 969.0, 969.0, 970.0, 971.0, 970.0, 968.0, 970.0, 967.0, 966.0, 967.0, 967.0, 968.0, 968.0, 968.0, 968.0, 969.0, 970.0, 970.0, 969.0, 967.0, 968.0, 969.0, 970.0, 970.0, 969.0, 969.0, 969.0, 968.0, 968.0, 968.0, 969.0, 969.0, 970.0, 969.0, 971.0, 971.0, 972.0, 971.0, 970.0, 971.0, 971.0, 973.0, 972.0, 972.0, 973.0, 971.0, 969.0, 973.0, 969.0, 969.0, 971.0, 971.0, 971.0, 973.0, 968.0, 968.0, 967.0, 971.0, 970.0, 972.0, 970.0, 973.0, 968.0, 967.0, 965.0, 968.0, 967.0, 967.0, 967.0, 967.0, 967.0, 967.0, 971.0, 970.0, 970.0, 974.0, 968.0, 968.0, 968.0, 971.0, 968.0]
    },
    "slices": {}
  }
}