{
  "AcquisitionMatrixPE": 64,
  "AcquisitionNumber": 1,
  "AcquisitionTime": "18:39:17.535000",
  "BandwidthPerPixelPhaseEncode": 40.064,
  "BaseResolution": 64,
  "BodyPartExamined": "BRAIN",
  "ConsistencyInfo": "N4_VD13D_LATEST_20130810",
  "ConversionSoftware": "dcm2niix",
  "ConversionSoftwareVersion": "v1.0.20191031",
  "DerivedVendorReportedEchoSpacing": 0.000780002,
  "DeviceSerialNumber": "67007",
  "DwellTime": 5.3e-06,
  "EchoTime": 0.03,
  "EchoTrainLength": 31,
  "EffectiveEchoSpacing": 0.000390001,
  "FlipAngle": 75,
  "ImageOrientationPatientDICOM": [0.999601, 0.0201855, 0.01974, -0.0226841, 0.990467, 0.135869],
  "ImageType": [
    "ORIGINAL",
    "PRIMARY",
    "M",
    "ND",
    "NORM",
    "MOSAIC"
],
  "ImagingFrequency": 123.211,
  "InPlanePhaseEncodingDirectionDICOM": "ROW",
  "InstitutionAddress": "Perth_Drive_100_London_Ontario_CA_N6A_5K8",
  "InstitutionName": "Robarts-CFMM",
  "InstitutionalDepartmentName": "CFMM",
  "MRAcquisitionType": "2D",
  "MagneticFieldStrength": 3,
  "Manufacturer": "Siemens",
  "ManufacturersModelName": "Prisma_fit",
  "Modality": "MR",
  "ParallelReductionFactorInPlane": 2,
  "PartialFourier": 1,
  "PatientPosition": "HFS",
  "PercentPhaseFOV": 100,
  "PhaseEncodingDirection": "i",
  "PhaseEncodingSteps": 63,
  "PhaseResolution": 1,
  "PixelBandwidth": 1475,
  "ProcedureStepDescription": "Owen_Naci",
  "ProtocolName": "Resting_State_recovery",
  "PulseSequenceDetails": "%SiemensSeq%_ep2d_bold",
  "ReceiveCoilActiveElements": "HEA;HEP",
  "ReceiveCoilName": "Head_32",
  "ReconMatrixPE": 64,
  "RefLinesPE": 24,
  "RepetitionTime": 2,
  "SAR": 0.0886871,
  "ScanOptions": "FS",
  "ScanningSequence": "EP",
  "SequenceName": "_epfid2d1_64",
  "SequenceVariant": "SK",
  "SeriesDescription": "Resting_State_recovery",
  "SeriesNumber": 24,
  "ShimSetting": [5237, -6191, -3843, 344, -21, -75, 14, 13],
  "SliceThickness": 3,
  "SliceTiming": [1.92, 1.86, 1.8, 1.74, 1.68, 1.62, 1.56, 1.5, 1.44, 1.38, 1.32, 1.26, 1.2, 1.14, 1.08, 1.02, 0.96, 0.9, 0.84, 0.78, 0.72, 0.66, 0.6, 0.54, 0.48, 0.42, 0.36, 0.3, 0.24, 0.18, 0.12, 0.06, 0],
  "SoftwareVersions": "syngo_MR_D13D",
  "SpacingBetweenSlices": 3.75,
  "StationName": "AWP67007",
  "TaskName": "rest",
  "TotalReadoutTime": 0.0245701,
  "TxRefAmp": 259.108,
  "dcmmeta_affine": [
    [-2.9988040924072266, -0.06805238127708435, 0.06303481012582779, 97.19085693359375],
    [-0.06055636331439018, 2.9714012145996094, 0.5109841227531433, -81.46173095703125],
    [0.05922010913491249, -0.40760642290115356, 3.7144882678985596, -28.151582717895508],
    [0.0, 0.0, 0.0, 1.0]
],
  "dcmmeta_reorient_transform": [
    [0.0, -1.0, 0.0, 63.0],
    [1.0, 0.0, 0.0, 0.0],
    [0.0, 0.0, 1.0, 0.0],
    [0.0, 0.0, 0.0, 1.0]
],
  "dcmmeta_shape": [64, 64, 33, 256],
  "dcmmeta_slice_dim": 2,
  "dcmmeta_version": 0.6,
  "global": {
    "const": {
      "AcquisitionMatrix": [0, 64, 64, 0],
      "AngioFlag": "N",
      "BitsAllocated": 16,
      "BitsStored": 12,
      "BodyPartExamined": "BRAIN",
      "Columns": 384,
      "EchoNumbers": 1,
      "EchoTime": 30.0,
      "EchoTrainLength": 31,
      "FlipAngle": 75.0,
      "HighBit": 11,
      "ImageOrientationPatient": [0.9996013597255, 0.02018545486823, 0.01974003664388, -0.0226841272627, 0.99046711033283, 0.13586881069354],
      "ImagePositionPatient": [-561.82382725091, -590.84978765865, -128.52303386543],
      "ImageType": [
        "ORIGINAL",
        "PRIMARY",
        "M",
        "ND",
        "NORM",
        "MOSAIC"
],
      "ImagedNucleus": "1H",
      "ImagingFrequency": 123.211108,
      "InPlanePhaseEncodingDirection": "ROW",
      "MRAcquisitionType": "2D",
      "MagneticFieldStrength": 3.0,
      "Manufacturer": "SIEMENS",
      "ManufacturerModelName": "Prisma_fit",
      "Modality": "MR",
      "NumberOfAverages": 1.0,
      "NumberOfPhaseEncodingSteps": 63,
      "PercentPhaseFieldOfView": 100.0,
      "PercentSampling": 100.0,
      "PerformedProcedureStepStartTime": "161631.696000",
      "PhotometricInterpretation": "MONOCHROME2",
      "PixelBandwidth": 1475.0,
      "PixelRepresentation": 0,
      "PixelSpacing": [3.0, 3.0],
      "ProtocolName": "Resting State_recovery",
      "RepetitionTime": 2000.0,
      "Rows": 384,
      "SAR": 0.08868706335489,
      "SamplesPerPixel": 1,
      "ScanOptions": "FS",
      "ScanningSequence": "EP",
      "SequenceName": "*epfid2d1_64",
      "SequenceVariant": "SK",
      "SeriesDescription": "Resting State_recovery",
      "SeriesNumber": 24,
      "SeriesTime": "184000.737000",
      "SliceLocation": -37.351455526441,
      "SliceThickness": 3.0,
      "SmallestImagePixelValue": 0,
      "SoftwareVersions": "syngo MR D13D",
      "SpacingBetweenSlices": 3.7500000531564,
      "SpecificCharacterSet": "ISO_IR 100",
      "StudyID": "1",
      "StudyTime": "161631.639000",
      "TimeOfLastCalibration": ["123723.000000", "123723.000000"],
      "TransmitCoilName": "Body",
      "VariableFlipAngleFlag": "N",
      "WindowCenterWidthExplanation": "Algo1",
      "dBdt": 0.0},
    "slices": {}
  },
  "time": {
    "samples": {
      "AcquisitionNumber": [1, 2, 3, 4, 5, 6, 7, 8, 9, 10, 11, 12, 13, 14, 15, 16, 17, 18, 19, 20, 21, 22, 23, 24, 25, 26, 27, 28, 29, 30, 31, 32, 33, 34, 35, 36, 37, 38, 39, 40, 41, 42, 43, 44, 45, 46, 47, 48, 49, 50, 51, 52, 53, 54, 55, 56, 57, 58, 59, 60, 61, 62, 63, 64, 65, 66, 67, 68, 69, 70, 71, 72, 73, 74, 75, 76, 77, 78, 79, 80, 81, 82, 83, 84, 85, 86, 87, 88, 89, 90, 91, 92, 93, 94, 95, 96, 97, 98, 99, 100, 101, 102, 103, 104, 105, 106, 107, 108, 109, 110, 111, 112, 113, 114, 115, 116, 117, 118, 119, 120, 121, 122, 123, 124, 125, 126, 127, 128, 129, 130, 131, 132, 133, 134, 135, 136, 137, 138, 139, 140, 141, 142, 143, 144, 145, 146, 147, 148, 149, 150, 151, 152, 153, 154, 155, 156, 157, 158, 159, 160, 161, 162, 163, 164, 165, 166, 167, 168, 169, 170, 171, 172, 173, 174, 175, 176, 177, 178, 179, 180, 181, 182, 183, 184, 185, 186, 187, 188, 189, 190, 191, 192, 193, 194, 195, 196, 197, 198, 199, 200, 201, 202, 203, 204, 205, 206, 207, 208, 209, 210, 211, 212, 213, 214, 215, 216, 217, 218, 219, 220, 221, 222, 223, 224, 225, 226, 227, 228, 229, 230, 231, 232, 233, 234, 235, 236, 237, 238, 239, 240, 241, 242, 243, 244, 245, 246, 247, 248, 249, 250, 251, 252, 253, 254, 255, 256],
      "AcquisitionTime": ["183917.535000", "183919.535000", "183921.535000", "183923.535000", "183925.535000", "183927.535000", "183929.535000", "183931.535000", "183933.535000", "183935.535000", "183937.535000", "183939.535000", "183941.535000", "183943.535000", "183945.535000", "183947.535000", "183949.535000", "183951.535000", "183953.535000", "183955.535000", "183957.535000", "183959.535000", "184001.535000", "184003.535000", "184005.535000", "184007.535000", "184009.535000", "184011.535000", "184013.535000", "184015.535000", "184017.535000", "184019.535000", "184021.535000", "184023.535000", "184025.535000", "184027.535000", "184029.535000", "184031.535000", "184033.535000", "184035.535000", "184037.535000", "184039.535000", "184041.535000", "184043.535000", "184045.535000", "184047.535000", "184049.535000", "184051.535000", "184053.535000", "184055.535000", "184057.535000", "184059.535000", "184101.535000", "184103.535000", "184105.535000", "184107.535000", "184109.535000", "184111.535000", "184113.535000", "184115.535000", "184117.535000", "184119.535000", "184121.535000", "184123.535000", "184125.535000", "184127.535000", "184129.535000", "184131.535000", "184133.535000", "184135.535000", "184137.535000", "184139.535000", "184141.535000", "184143.535000", "184145.535000", "184147.535000", "184149.535000", "184151.535000", "184153.535000", "184155.535000", "184157.535000", "184159.535000", "184201.535000", "184203.535000", "184205.535000", "184207.535000", "184209.535000", "184211.535000", "184213.535000", "184215.535000", "184217.535000", "184219.535000", "184221.535000", "184223.535000", "184225.535000", "184227.535000", "184229.535000", "184231.535000", "184233.535000", "184235.535000", "184237.535000", "184239.535000", "184241.535000", "184243.535000", "184245.535000", "184247.535000", "184249.535000", "184251.535000", "184253.535000", "184255.535000", "184257.535000", "184259.535000", "184301.535000", "184303.535000", "184305.535000", "184307.535000", "184309.535000", "184311.535000", "184313.535000", "184315.535000", "184317.535000", "184319.535000", "184321.535000", "184323.535000", "184325.535000", "184327.535000", "184329.535000", "184331.535000", "184333.535000", "184335.535000", "184337.535000", "184339.535000", "184341.535000", "184343.535000", "184345.535000", "184347.535000", "184349.535000", "184351.535000", "184353.535000", "184355.535000", "184357.535000", "184359.535000", "184401.535000", "184403.535000", "184405.535000", "184407.535000", "184409.535000", "184411.535000", "184413.535000", "184415.535000", "184417.535000", "184419.535000", "184421.535000", "184423.535000", "184425.535000", "184427.535000", "184429.535000", "184431.535000", "184433.535000", "184435.537500", "184437.537500", "184439.537500", "184441.537500", "184443.537500", "184445.537500", "184447.537500", "184449.537500", "184451.537500", "184453.537500", "184455.537500", "184457.537500", "184459.537500", "184501.537500", "184503.537500", "184505.537500", "184507.537500", "184509.537500", "184511.537500", "184513.537500", "184515.537500", "184517.537500", "184519.537500", "184521.537500", "184523.537500", "184525.537500", "184527.537500", "184529.537500", "184531.537500", "184533.537500", "184535.537500", "184537.537500", "184539.537500", "184541.537500", "184543.537500", "184545.537500", "184547.537500", "184549.537500", "184551.537500", "184553.537500", "184555.537500", "184557.537500", "184559.537500", "184601.537500", "184603.537500", "184605.537500", "184607.537500", "184609.537500", "184611.537500", "184613.537500", "184615.537500", "184617.537500", "184619.537500", "184621.537500", "184623.537500", "184625.537500", "184627.537500", "184629.537500", "184631.537500", "184633.537500", "184635.537500", "184637.537500", "184639.537500", "184641.537500", "184643.537500", "184645.537500", "184647.537500", "184649.537500", "184651.537500", "184653.537500", "184655.537500", "184657.537500", "184659.537500", "184701.537500", "184703.537500", "184705.537500", "184707.537500", "184709.537500", "184711.537500", "184713.537500", "184715.537500", "184717.537500", "184719.537500", "184721.537500", "184723.537500", "184725.537500", "184727.537500", "184729.537500", "184731.537500", "184733.537500", "184735.537500", "184737.537500", "184739.537500", "184741.537500", "184743.537500", "184745.537500", "184747.537500"],
      "ContentTime": ["184000.741000", "184000.745000", "184000.747000", "184000.750000", "184000.753000", "184000.756000", "184000.759000", "184000.761000", "184000.764000", "184000.767000", "184000.770000", "184000.772000", "184000.775000", "184000.777000", "184000.780000", "184000.783000", "184000.786000", "184000.788000", "184000.791000", "184000.794000", "184000.797000", "184000.805000", "184040.736000", "184040.739000", "184040.742000", "184040.745000", "184040.748000", "184040.750000", "184040.753000", "184040.756000", "184040.759000", "184040.761000", "184040.764000", "184040.767000", "184040.770000", "184040.773000", "184040.776000", "184040.779000", "184040.781000", "184040.784000", "184040.787000", "184040.790000", "184120.736000", "184120.739000", "184120.747000", "184120.750000", "184120.752000", "184120.755000", "184120.758000", "184120.761000", "184120.763000", "184120.766000", "184120.768000", "184120.771000", "184120.774000", "184120.776000", "184120.779000", "184120.782000", "184120.785000", "184120.788000", "184120.791000", "184120.794000", "184200.735000", "184200.739000", "184200.741000", "184200.744000", "184200.747000", "184200.750000", "184200.753000", "184200.755000", "184200.758000", "184200.761000", "184200.763000", "184200.766000", "184200.769000", "184200.772000", "184200.775000", "184200.778000", "184200.780000", "184200.783000", "184200.785000", "184200.788000", "184240.735000", "184240.738000", "184240.741000", "184240.744000", "184240.747000", "184240.750000", "184240.752000", "184240.755000", "184240.758000", "184240.761000", "184240.764000", "184240.767000", "184240.769000", "184240.772000", "184240.775000", "184240.778000", "184240.781000", "184240.783000", "184240.786000", "184240.789000", "184320.736000", "184320.739000", "184320.742000", "184320.745000", "184320.748000", "184320.751000", "184320.753000", "184320.756000", "184320.759000", "184320.761000", "184320.764000", "184320.767000", "184320.769000", "184320.772000", "184320.775000", "184320.778000", "184320.781000", "184320.784000", "184320.787000", "184320.789000", "184400.735000", "184400.738000", "184400.741000", "184400.744000", "184400.746000", "184400.749000", "184400.752000", "184400.755000", "184400.758000", "184400.761000", "184400.763000", "184400.766000", "184400.769000", "184400.772000", "184400.775000", "184400.778000", "184400.781000", "184400.783000", "184400.786000", "184400.789000", "184440.735000", "184440.738000", "184440.741000", "184440.744000", "184440.747000", "184440.750000", "184440.753000", "184440.755000", "184440.758000", "184440.761000", "184440.764000", "184440.766000", "184440.769000", "184440.772000", "184440.775000", "184440.778000", "184440.781000", "184440.783000", "184440.786000", "184440.788000", "184520.736000", "184520.739000", "184520.742000", "184520.745000", "184520.747000", "184520.750000", "184520.753000", "184520.756000", "184520.759000", "184520.762000", "184520.764000", "184520.767000", "184520.770000", "184520.773000", "184520.775000", "184520.778000", "184520.781000", "184520.784000", "184520.787000", "184520.789000", "184600.736000", "184600.739000", "184600.742000", "184600.745000", "184600.748000", "184600.751000", "184600.754000", "184600.756000", "184600.759000", "184600.762000", "184600.765000", "184600.768000", "184600.770000", "184600.773000", "184600.776000", "184600.779000", "184600.782000", "184600.785000", "184600.788000", "184600.790000", "184620.735000", "184620.738000", "184620.740000", "184620.743000", "184620.746000", "184620.749000", "184620.752000", "184620.755000", "184620.758000", "184620.760000", "184700.735000", "184700.738000", "184700.741000", "184700.744000", "184700.746000", "184700.749000", "184700.751000", "184700.754000", "184700.757000", "184700.760000", "184700.763000", "184700.766000", "184700.768000", "184700.771000", "184700.773000", "184700.776000", "184700.779000", "184700.782000", "184700.785000", "184700.788000", "184740.736000", "184740.739000", "184740.742000", "184740.745000", "184740.748000", "184740.751000", "184740.753000", "184740.756000", "184740.759000", "184740.762000", "184740.765000", "184740.767000", "184740.770000", "184740.773000", "184740.775000", "184740.778000", "184740.781000", "184740.783000", "184740.786000", "184740.789000", "184748.136000", "184748.139000", "184748.142000", "184748.145000"],
      "InstanceCreationTime": ["184000.741000", "184000.745000", "184000.747000", "184000.750000", "184000.753000", "184000.756000", "184000.759000", "184000.761000", "184000.764000", "184000.767000", "184000.770000", "184000.772000", "184000.775000", "184000.777000", "184000.780000", "184000.783000", "184000.786000", "184000.788000", "184000.791000", "184000.794000", "184000.797000", "184000.805000", "184040.736000", "184040.739000", "184040.742000", "184040.745000", "184040.748000", "184040.750000", "184040.753000", "184040.756000", "184040.759000", "184040.761000", "184040.764000", "184040.767000", "184040.770000", "184040.773000", "184040.776000", "184040.779000", "184040.781000", "184040.784000", "184040.787000", "184040.790000", "184120.736000", "184120.739000", "184120.747000", "184120.750000", "184120.752000", "184120.755000", "184120.758000", "184120.761000", "184120.763000", "184120.766000", "184120.768000", "184120.771000", "184120.774000", "184120.776000", "184120.779000", "184120.782000", "184120.785000", "184120.788000", "184120.791000", "184120.794000", "184200.735000", "184200.739000", "184200.741000", "184200.744000", "184200.747000", "184200.750000", "184200.753000", "184200.755000", "184200.758000", "184200.761000", "184200.763000", "184200.766000", "184200.769000", "184200.772000", "184200.775000", "184200.778000", "184200.780000", "184200.783000", "184200.785000", "184200.788000", "184240.735000", "184240.738000", "184240.741000", "184240.744000", "184240.747000", "184240.750000", "184240.752000", "184240.755000", "184240.758000", "184240.761000", "184240.764000", "184240.767000", "184240.769000", "184240.772000", "184240.775000", "184240.778000", "184240.781000", "184240.783000", "184240.786000", "184240.789000", "184320.736000", "184320.739000", "184320.742000", "184320.745000", "184320.748000", "184320.751000", "184320.753000", "184320.756000", "184320.759000", "184320.761000", "184320.764000", "184320.767000", "184320.769000", "184320.772000", "184320.775000", "184320.778000", "184320.781000", "184320.784000", "184320.787000", "184320.789000", "184400.735000", "184400.738000", "184400.741000", "184400.744000", "184400.746000", "184400.749000", "184400.752000", "184400.755000", "184400.758000", "184400.761000", "184400.763000", "184400.766000", "184400.769000", "184400.772000", "184400.775000", "184400.778000", "184400.781000", "184400.783000", "184400.786000", "184400.789000", "184440.735000", "184440.738000", "184440.741000", "184440.744000", "184440.747000", "184440.750000", "184440.753000", "184440.755000", "184440.758000", "184440.761000", "184440.764000", "184440.766000", "184440.769000", "184440.772000", "184440.775000", "184440.778000", "184440.781000", "184440.783000", "184440.786000", "184440.788000", "184520.736000", "184520.739000", "184520.742000", "184520.745000", "184520.747000", "184520.750000", "184520.753000", "184520.756000", "184520.759000", "184520.762000", "184520.764000", "184520.767000", "184520.770000", "184520.773000", "184520.775000", "184520.778000", "184520.781000", "184520.784000", "184520.787000", "184520.789000", "184600.736000", "184600.739000", "184600.742000", "184600.745000", "184600.748000", "184600.751000", "184600.754000", "184600.756000", "184600.759000", "184600.762000", "184600.765000", "184600.768000", "184600.770000", "184600.773000", "184600.776000", "184600.779000", "184600.782000", "184600.785000", "184600.788000", "184600.790000", "184620.735000", "184620.738000", "184620.740000", "184620.743000", "184620.746000", "184620.749000", "184620.752000", "184620.755000", "184620.758000", "184620.760000", "184700.735000", "184700.738000", "184700.741000", "184700.744000", "184700.746000", "184700.749000", "184700.751000", "184700.754000", "184700.757000", "184700.760000", "184700.763000", "184700.766000", "184700.768000", "184700.771000", "184700.773000", "184700.776000", "184700.779000", "184700.782000", "184700.785000", "184700.788000", "184740.736000", "184740.739000", "184740.742000", "184740.745000", "184740.748000", "184740.751000", "184740.753000", "184740.756000", "184740.759000", "184740.762000", "184740.765000", "184740.767000", "184740.770000", "184740.773000", "184740.775000", "184740.778000", "184740.781000", "184740.783000", "184740.786000", "184740.789000", "184748.136000", "184748.139000", "184748.142000", "184748.145000"],
      "InstanceNumber": [1, 2, 3, 4, 5, 6, 7, 8, 9, 10, 11, 12, 13, 14, 15, 16, 17, 18, 19, 20, 21, 22, 23, 24, 25, 26, 27, 28, 29, 30, 31, 32, 33, 34, 35, 36, 37, 38, 39, 40, 41, 42, 43, 44, 45, 46, 47, 48, 49, 50, 51, 52, 53, 54, 55, 56, 57, 58, 59, 60, 61, 62, 63, 64, 65, 66, 67, 68, 69, 70, 71, 72, 73, 74, 75, 76, 77, 78, 79, 80, 81, 82, 83, 84, 85, 86, 87, 88, 89, 90, 91, 92, 93, 94, 95, 96, 97, 98, 99, 100, 101, 102, 103, 104, 105, 106, 107, 108, 109, 110, 111, 112, 113, 114, 115, 116, 117, 118, 119, 120, 121, 122, 123, 124, 125, 126, 127, 128, 129, 130, 131, 132, 133, 134, 135, 136, 137, 138, 139, 140, 141, 142, 143, 144, 145, 146, 147, 148, 149, 150, 151, 152, 153, 154, 155, 156, 157, 158, 159, 160, 161, 162, 163, 164, 165, 166, 167, 168, 169, 170, 171, 172, 173, 174, 175, 176, 177, 178, 179, 180, 181, 182, 183, 184, 185, 186, 187, 188, 189, 190, 191, 192, 193, 194, 195, 196, 197, 198, 199, 200, 201, 202, 203, 204, 205, 206, 207, 208, 209, 210, 211, 212, 213, 214, 215, 216, 217, 218, 219, 220, 221, 222, 223, 224, 225, 226, 227, 228, 229, 230, 231, 232, 233, 234, 235, 236, 237, 238, 239, 240, 241, 242, 243, 244, 245, 246, 247, 248, 249, 250, 251, 252, 253, 254, 255, 256],
      "LargestImagePixelValue": [980, 860, 794, 812, 845, 797, 806, 828, 811, 789, 817, 796, 847, 814, 796, 919, 792, 794, 849, 790, 808, 820, 812, 831, 825, 783, 826, 835, 880, 801, 800, 830, 809, 802, 798, 824, 858, 817, 806, 837, 811, 803, 815, 799, 814, 808, 819, 817, 820, 851, 802, 797, 801, 814, 831, 802, 811, 830, 843, 919, 785, 824, 849, 795, 814, 826, 849, 828, 800, 817, 814, 842, 801, 825, 812, 884, 801, 869, 802, 826, 839, 841, 802, 815, 817, 808, 823, 833, 795, 833, 841, 840, 882, 823, 824, 836, 805, 811, 799, 818, 803, 833, 825, 867, 803, 784, 825, 839, 842, 819, 802, 807, 813, 854, 808, 793, 809, 811, 827, 851, 797, 803, 810, 818, 835, 845, 816, 798, 840, 835, 880, 805, 816, 811, 813, 814, 802, 819, 801, 828, 807, 806, 815, 874, 798, 813, 821, 821, 818, 816, 823, 838, 797, 829, 820, 813, 805, 822, 847, 795, 800, 819, 835, 811, 816, 830, 818, 795, 804, 817, 827, 827, 798, 795, 800, 817, 816, 810, 790, 819, 802, 813, 816, 824, 841, 803, 797, 829, 817, 823, 828, 807, 820, 812, 822, 796, 785, 843, 804, 865, 805, 818, 829, 825, 823, 880, 798, 813, 846, 800, 828, 794, 791, 869, 846, 808, 800, 836, 822, 805, 784, 795, 806, 805, 816, 809, 821, 833, 798, 823, 830, 818, 854, 815, 849, 847, 819, 837, 800, 804, 823, 840, 799, 852, 806, 920, 808, 853, 841, 804, 809, 809, 828, 857, 834, 798],
      "WindowCenter": [447.0, 443.0, 441.0, 440.0, 442.0, 441.0, 443.0, 444.0, 444.0, 444.0, 444.0, 445.0, 446.0, 447.0, 446.0, 447.0, 445.0, 445.0, 446.0, 446.0, 447.0, 446.0, 446.0, 446.0, 447.0, 445.0, 446.0, 445.0, 446.0, 445.0, 445.0, 446.0, 445.0, 445.0, 445.0, 445.0, 445.0, 444.0, 445.0, 446.0, 446.0, 445.0, 446.0, 445.0, 445.0, 444.0, 445.0, 445.0, 447.0, 446.0, 446.0, 445.0, 445.0, 446.0, 446.0, 445.0, 446.0, 446.0, 445.0, 446.0, 444.0, 444.0, 444.0, 444.0, 444.0, 445.0, 446.0, 446.0, 445.0, 446.0, 445.0, 445.0, 444.0, 444.0, 444.0, 445.0, 444.0, 445.0, 444.0, 445.0, 445.0, 445.0, 444.0, 444.0, 444.0, 444.0, 445.0, 444.0, 444.0, 445.0, 446.0, 445.0, 445.0, 444.0, 445.0, 445.0, 444.0, 444.0, 444.0, 444.0, 444.0, 445.0, 445.0, 445.0, 443.0, 444.0, 445.0, 446.0, 445.0, 444.0, 444.0, 444.0, 444.0, 446.0, 445.0, 444.0, 445.0, 445.0, 445.0, 445.0, 445.0, 445.0, 446.0, 446.0, 446.0, 445.0, 445.0, 445.0, 446.0, 445.0, 445.0, 445.0, 446.0, 444.0, 444.0, 445.0, 444.0, 445.0, 445.0, 445.0, 444.0, 445.0, 444.0, 445.0, 444.0, 444.0, 444.0, 444.0, 444.0, 444.0, 444.0, 444.0, 444.0, 444.0, 444.0, 444.0, 444.0, 445.0, 444.0, 445.0, 445.0, 444.0, 445.0, 445.0, 444.0, 444.0, 444.0, 444.0, 444.0, 445.0, 445.0, 445.0, 444.0, 445.0, 444.0, 445.0, 444.0, 444.0, 444.0, 445.0, 444.0, 445.0, 444.0, 445.0, 445.0, 445.0, 445.0, 446.0, 446.0, 446.0, 446.0, 445.0, 445.0, 446.0, 445.0, 446.0, 445.0, 446.0, 445.0, 445.0, 444.0, 446.0, 446.0, 447.0, 447.0, 445.0, 443.0, 443.0, 444.0, 445.0, 445.0, 445.0, 445.0, 446.0, 444.0, 444.0, 444.0, 445.0, 444.0, 443.0, 442.0, 443.0, 444.0, 444.0, 444.0, 444.0, 444.0, 445.0, 445.0, 446.0, 445.0, 444.0, 444.0, 444.0, 444.0, 443.0, 444.0, 444.0, 445.0, 445.0, 446.0, 446.0, 445.0, 446.0, 444.0, 446.0, 443.0, 444.0, 443.0, 443.0, 444.0, 443.0, 443.0, 444.0, 444.0, 443.0],
      "WindowWidth": [936.0, 928.0, 925.0, 924.0, 926.0, 926.0, 929.0, 931.0, 931.0, 931.0, 931.0, 933.0, 935.0, 936.0, 934.0, 935.0, 933.0, 933.0, 935.0, 935.0, 936.0, 934.0, 934.0, 934.0, 936.0, 933.0, 934.0, 933.0, 934.0, 932.0, 933.0, 934.0, 934.0, 933.0, 933.0, 932.0, 933.0, 931.0, 933.0, 934.0, 934.0, 933.0, 934.0, 932.0, 933.0, 931.0, 932.0, 932.0, 935.0, 935.0, 934.0, 933.0, 934.0, 934.0, 935.0, 933.0, 934.0, 934.0, 932.0, 934.0, 931.0, 931.0, 931.0, 931.0, 931.0, 932.0, 933.0, 934.0, 933.0, 934.0, 933.0, 932.0, 931.0, 931.0, 931.0, 932.0, 930.0, 933.0, 931.0, 932.0, 932.0, 933.0, 930.0, 931.0, 931.0, 931.0, 932.0, 932.0, 932.0, 933.0, 933.0, 932.0, 932.0, 931.0, 932.0, 932.0, 930.0, 931.0, 931.0, 931.0, 931.0, 933.0, 932.0, 932.0, 929.0, 930.0, 932.0, 933.0, 932.0, 931.0, 931.0, 932.0, 931.0, 933.0, 932.0, 931.0, 933.0, 933.0, 932.0, 933.0, 933.0, 932.0, 934.0, 934.0, 934.0, 933.0, 933.0, 933.0, 935.0, 933.0, 933.0, 933.0, 933.0, 931.0, 931.0, 932.0, 931.0, 932.0, 933.0, 933.0, 932.0, 932.0, 931.0, 932.0, 931.0, 931.0, 931.0, 931.0, 931.0, 931.0, 931.0, 931.0, 931.0, 931.0, 931.0, 931.0, 931.0, 932.0, 931.0, 933.0, 932.0, 931.0, 932.0, 932.0, 931.0, 931.0, 931.0, 931.0, 931.0, 933.0, 933.0, 932.0, 931.0, 932.0, 932.0, 933.0, 931.0, 931.0, 930.0, 932.0, 931.0, 932.0, 931.0, 933.0, 933.0, 932.0, 932.0, 934.0, 934.0, 935.0, 934.0, 933.0, 933.0, 934.0, 933.0, 934.0, 933.0, 934.0, 932.0, 932.0, 931.0, 934.0, 934.0, 936.0, 935.0, 932.0, 929.0, 929.0, 931.0, 933.0, 932.0, 933.0, 932.0, 934.0, 931.0, 930.0, 930.0, 932.0, 930.0, 929.0, 928.0, 929.0, 930.0, 930.0, 931.0, 930.0, 931.0, 932.0, 932.0, 934.0, 932.0, 930.0, 930.0, 930.0, 931.0, 929.0, 930.0, 931.0, 933.0, 932.0, 933.0, 934.0, 934.0, 933.0, 931.0, 933.0, 930.0, 931.0, 929.0, 930.0, 930.0, 929.0, 929.0, 930.0, 930.0, 930.0]
    },
    "slices": {}
  }
}