{
  "AcquisitionMatrixPE": 64,
  "AcquisitionNumber": 1,
  "AcquisitionTime": "16:41:26.305000",
  "BandwidthPerPixelPhaseEncode": 40.064,
  "BaseResolution": 64,
  "BodyPartExamined": "BRAIN",
  "ConsistencyInfo": "N4_VD13D_LATEST_20130810",
  "ConversionSoftware": "dcm2niix",
  "ConversionSoftwareVersion": "v1.0.20191031",
  "DerivedVendorReportedEchoSpacing": 0.000780002,
  "DeviceSerialNumber": "67007",
  "DwellTime": 5.3e-06,
  "EchoTime": 0.03,
  "EchoTrainLength": 31,
  "EffectiveEchoSpacing": 0.000390001,
  "FlipAngle": 75,
  "ImageOrientationPatientDICOM": [0.999191, 0.0400351, 0.00385328, -0.0401317, 0.998758, 0.0295302],
  "ImageType": [
    "ORIGINAL",
    "PRIMARY",
    "M",
    "ND",
    "NORM",
    "MOSAIC"
],
  "ImagingFrequency": 123.211,
  "InPlanePhaseEncodingDirectionDICOM": "ROW",
  "InstitutionAddress": "Perth_Drive_100_London_Ontario_CA_N6A_5K8",
  "InstitutionName": "Robarts-CFMM",
  "InstitutionalDepartmentName": "CFMM",
  "MRAcquisitionType": "2D",
  "MagneticFieldStrength": 3,
  "Manufacturer": "Siemens",
  "ManufacturersModelName": "Prisma_fit",
  "Modality": "MR",
  "ParallelReductionFactorInPlane": 2,
  "PartialFourier": 1,
  "PatientPosition": "HFS",
  "PercentPhaseFOV": 100,
  "PhaseEncodingDirection": "i",
  "PhaseEncodingSteps": 63,
  "PhaseResolution": 1,
  "PixelBandwidth": 1475,
  "ProcedureStepDescription": "Owen_Naci",
  "ProtocolName": "Resting_State_light_sed",
  "PulseSequenceDetails": "%SiemensSeq%_ep2d_bold",
  "ReceiveCoilActiveElements": "HEA;HEP",
  "ReceiveCoilName": "Head_32",
  "ReconMatrixPE": 64,
  "RefLinesPE": 24,
  "RepetitionTime": 2,
  "SAR": 0.0907574,
  "ScanOptions": "FS",
  "ScanningSequence": "EP",
  "SequenceName": "_epfid2d1_64",
  "SequenceVariant": "SK",
  "SeriesDescription": "Resting_State_light_sed",
  "SeriesNumber": 15,
  "ShimSetting": [5245, -6181, -3804, 488, -41, 20, 22, 9],
  "SliceThickness": 3,
  "SliceTiming": [1.9175, 1.8575, 1.7975, 1.7375, 1.6775, 1.6175, 1.5575, 1.4975, 1.4375, 1.3775, 1.3175, 1.2575, 1.1975, 1.1375, 1.0775, 1.0175, 0.9575, 0.8975, 0.8375, 0.7775, 0.7175, 0.6575, 0.5975, 0.5375, 0.4775, 0.4175, 0.3575, 0.2975, 0.2375, 0.1775, 0.1175, 0.0575, 0],
  "SoftwareVersions": "syngo_MR_D13D",
  "SpacingBetweenSlices": 3.75,
  "StationName": "AWP67007",
  "TaskName": "rest",
  "TotalReadoutTime": 0.0245701,
  "TxRefAmp": 271.966,
  "dcmmeta_affine": [
    [-2.997572422027588, -0.12039495259523392, 0.009998445399105549, 95.10115814208984],
    [-0.12010534852743149, 2.9962737560272217, 0.11122836172580719, -83.29228973388672],
    [0.011559844017028809, -0.08859045803546906, 3.7483365535736084, -38.92499923706055],
    [0.0, 0.0, 0.0, 1.0]
],
  "dcmmeta_reorient_transform": [
    [0.0, -1.0, 0.0, 63.0],
    [1.0, 0.0, 0.0, 0.0],
    [0.0, 0.0, 1.0, 0.0],
    [0.0, 0.0, 0.0, 1.0]
],
  "dcmmeta_shape": [64, 64, 33, 161],
  "dcmmeta_slice_dim": 2,
  "dcmmeta_version": 0.6,
  "global": {
    "const": {
      "AcquisitionMatrix": [0, 64, 64, 0],
      "AngioFlag": "N",
      "BitsAllocated": 16,
      "BitsStored": 12,
      "BodyPartExamined": "BRAIN",
      "Columns": 384,
      "EchoNumbers": 1,
      "EchoTime": 30.0,
      "EchoTrainLength": 31,
      "FlipAngle": 75.0,
      "HighBit": 11,
      "ImageOrientationPatient": [0.99919084349536, 0.04003511582398, 0.00385328119919, -0.0401316505348, 0.99875793900998, 0.02953015221575],
      "ImagePositionPatient": [-547.86468890673, -604.09362561128, -60.530245433874],
      "ImageType": [
        "ORIGINAL",
        "PRIMARY",
        "M",
        "ND",
        "NORM",
        "MOSAIC"
],
      "ImagedNucleus": "1H",
      "ImagingFrequency": 123.211187,
      "InPlanePhaseEncodingDirection": "ROW",
      "MRAcquisitionType": "2D",
      "MagneticFieldStrength": 3.0,
      "Manufacturer": "SIEMENS",
      "ManufacturerModelName": "Prisma_fit",
      "Modality": "MR",
      "NumberOfAverages": 1.0,
      "NumberOfPhaseEncodingSteps": 63,
      "PercentPhaseFieldOfView": 100.0,
      "PercentSampling": 100.0,
      "PerformedProcedureStepStartTime": "151755.248000",
      "PhotometricInterpretation": "MONOCHROME2",
      "PixelBandwidth": 1475.0,
      "PixelRepresentation": 0,
      "PixelSpacing": [3.0, 3.0],
      "ProtocolName": "Resting State_light sed",
      "RepetitionTime": 2000.0,
      "Rows": 384,
      "SAR": 0.09075735883566,
      "SamplesPerPixel": 1,
      "ScanOptions": "FS",
      "ScanningSequence": "EP",
      "SequenceName": "*epfid2d1_64",
      "SequenceVariant": "SK",
      "SeriesDescription": "Resting State_light sed",
      "SeriesNumber": 15,
      "SeriesTime": "164217.688000",
      "SliceLocation": -41.124694281951,
      "SliceThickness": 3.0,
      "SmallestImagePixelValue": 0,
      "SoftwareVersions": "syngo MR D13D",
      "SpacingBetweenSlices": 3.7499999368645,
      "SpecificCharacterSet": "ISO_IR 100",
      "StudyID": "1",
      "StudyTime": "151755.148000",
      "TimeOfLastCalibration": ["123723.000000", "123723.000000"],
      "TransmitCoilName": "Body",
      "VariableFlipAngleFlag": "N",
      "WindowCenterWidthExplanation": "Algo1",
      "dBdt": 0.0},
    "slices": {}
  },
  "time": {
    "samples": {
      "AcquisitionNumber": [1, 3, 4, 8, 9, 10, 11, 14, 15, 18, 19, 20, 21, 22, 25, 28, 29, 30, 32, 33, 35, 36, 37, 39, 40, 42, 45, 46, 48, 49, 51, 52, 54, 55, 57, 58, 60, 62, 63, 66, 67, 68, 69, 70, 71, 72, 73, 74, 75, 76, 78, 79, 80, 82, 83, 84, 85, 88, 89, 90, 93, 94, 95, 96, 97, 98, 102, 103, 104, 106, 107, 108, 110, 111, 112, 115, 116, 117, 120, 121, 124, 126, 127, 128, 129, 131, 132, 138, 139, 140, 142, 146, 147, 149, 150, 151, 153, 154, 157, 158, 159, 160, 161, 164, 165, 167, 168, 170, 172, 175, 177, 179, 181, 182, 185, 187, 189, 191, 193, 195, 196, 199, 200, 201, 202, 203, 204, 206, 207, 210, 211, 212, 213, 214, 215, 219, 220, 221, 223, 224, 225, 226, 227, 230, 231, 232, 233, 235, 237, 238, 239, 240, 243, 247, 248, 250, 251, 252, 253, 254, 256],
      "AcquisitionTime": ["164126.305000", "164130.305000", "164132.305000", "164140.305000", "164142.305000", "164144.305000", "164146.305000", "164152.305000", "164154.305000", "164200.305000", "164202.305000", "164204.305000", "164206.305000", "164208.305000", "164214.305000", "164220.305000", "164222.305000", "164224.305000", "164228.305000", "164230.307500", "164234.307500", "164236.307500", "164238.307500", "164242.307500", "164244.307500", "164248.307500", "164254.307500", "164256.307500", "164300.307500", "164302.307500", "164306.307500", "164308.307500", "164312.307500", "164314.307500", "164318.307500", "164320.307500", "164324.307500", "164328.307500", "164330.307500", "164336.307500", "164338.307500", "164340.307500", "164342.307500", "164344.307500", "164346.307500", "164348.307500", "164350.307500", "164352.307500", "164354.307500", "164356.307500", "164400.307500", "164402.307500", "164404.307500", "164408.307500", "164410.307500", "164412.307500", "164414.307500", "164420.307500", "164422.307500", "164424.307500", "164430.307500", "164432.307500", "164434.307500", "164436.307500", "164438.307500", "164440.307500", "164448.307500", "164450.307500", "164452.307500", "164456.307500", "164458.307500", "164500.307500", "164504.307500", "164506.307500", "164508.307500", "164514.307500", "164516.307500", "164518.307500", "164524.307500", "164526.307500", "164532.307500", "164536.307500", "164538.307500", "164540.307500", "164542.307500", "164546.307500", "164548.307500", "164600.307500", "164602.307500", "164604.307500", "164608.307500", "164616.307500", "164618.307500", "164622.307500", "164624.307500", "164626.307500", "164630.307500", "164632.307500", "164638.307500", "164640.307500", "164642.307500", "164644.307500", "164646.307500", "164652.307500", "164654.307500", "164658.307500", "164700.307500", "164704.307500", "164708.307500", "164714.307500", "164718.307500", "164722.307500", "164726.307500", "164728.307500", "164734.307500", "164738.307500", "164742.307500", "164746.307500", "164750.307500", "164754.307500", "164756.307500", "164802.307500", "164804.307500", "164806.307500", "164808.307500", "164810.307500", "164812.307500", "164816.307500", "164818.307500", "164824.307500", "164826.307500", "164828.307500", "164830.307500", "164832.307500", "164834.307500", "164842.307500", "164844.307500", "164846.307500", "164850.307500", "164852.307500", "164854.307500", "164856.307500", "164858.307500", "164904.307500", "164906.307500", "164908.307500", "164910.307500", "164914.307500", "164918.307500", "164920.307500", "164922.307500", "164924.307500", "164930.307500", "164938.307500", "164940.307500", "164944.307500", "164946.307500", "164948.307500", "164950.307500", "164952.307500", "164956.307500"],
      "ContentTime": ["164217.693000", "164217.700000", "164217.703000", "164217.714000", "164217.717000", "164217.720000", "164217.723000", "164217.731000", "164217.734000", "164217.742000", "164217.745000", "164217.748000", "164217.751000", "164217.754000", "164217.762000", "164257.679000", "164257.681000", "164257.689000", "164257.694000", "164257.697000", "164257.703000", "164257.706000", "164257.709000", "164257.714000", "164257.717000", "164257.723000", "164257.730000", "164257.733000", "164337.679000", "164337.682000", "164337.687000", "164337.690000", "164337.696000", "164337.699000", "164337.704000", "164337.707000", "164337.712000", "164337.718000", "164337.720000", "164337.728000", "164417.676000", "164417.679000", "164417.682000", "164417.685000", "164417.688000", "164417.691000", "164417.693000", "164417.696000", "164417.699000", "164417.702000", "164417.707000", "164417.710000", "164417.713000", "164417.718000", "164417.721000", "164417.723000", "164417.726000", "164457.679000", "164457.682000", "164457.684000", "164457.693000", "164457.696000", "164457.698000", "164457.701000", "164457.704000", "164457.707000", "164457.718000", "164457.721000", "164457.723000", "164457.729000", "164537.675000", "164537.679000", "164537.684000", "164537.687000", "164537.690000", "164537.698000", "164537.701000", "164537.704000", "164537.713000", "164537.715000", "164537.724000", "164537.729000", "164617.676000", "164617.679000", "164617.682000", "164617.687000", "164617.690000", "164617.707000", "164617.710000", "164617.713000", "164617.718000", "164617.730000", "164657.675000", "164657.681000", "164657.684000", "164657.687000", "164657.692000", "164657.695000", "164657.712000", "164657.715000", "164657.717000", "164657.720000", "164657.723000", "164657.731000", "164657.733000", "164737.676000", "164737.679000", "164737.685000", "164737.691000", "164737.699000", "164737.705000", "164737.711000", "164737.716000", "164737.719000", "164737.727000", "164817.676000", "164817.682000", "164817.688000", "164817.693000", "164817.699000", "164817.702000", "164817.710000", "164817.713000", "164817.716000", "164817.719000", "164817.722000", "164817.724000", "164817.730000", "164857.677000", "164857.686000", "164857.689000", "164857.692000", "164857.695000", "164857.697000", "164857.700000", "164857.711000", "164857.714000", "164857.717000", "164857.723000", "164857.725000", "164857.728000", "164857.731000", "164937.677000", "164937.686000", "164937.696000", "164937.699000", "164937.702000", "164937.707000", "164937.713000", "164937.715000", "164937.718000", "164937.721000", "164937.729000", "164956.605000", "164956.608000", "164956.613000", "164956.616000", "164956.620000", "164956.623000", "164956.625000", "164956.631000"],
      "InstanceCreationTime": ["164217.693000", "164217.700000", "164217.703000", "164217.714000", "164217.717000", "164217.720000", "164217.723000", "164217.731000", "164217.734000", "164217.742000", "164217.745000", "164217.748000", "164217.751000", "164217.754000", "164217.762000", "164257.679000", "164257.681000", "164257.689000", "164257.694000", "164257.697000", "164257.703000", "164257.706000", "164257.709000", "164257.714000", "164257.717000", "164257.723000", "164257.730000", "164257.733000", "164337.679000", "164337.682000", "164337.687000", "164337.690000", "164337.696000", "164337.699000", "164337.704000", "164337.707000", "164337.712000", "164337.718000", "164337.720000", "164337.728000", "164417.676000", "164417.679000", "164417.682000", "164417.685000", "164417.688000", "164417.691000", "164417.693000", "164417.696000", "164417.699000", "164417.702000", "164417.707000", "164417.710000", "164417.713000", "164417.718000", "164417.721000", "164417.723000", "164417.726000", "164457.679000", "164457.682000", "164457.684000", "164457.693000", "164457.696000", "164457.698000", "164457.701000", "164457.704000", "164457.707000", "164457.718000", "164457.721000", "164457.723000", "164457.729000", "164537.675000", "164537.679000", "164537.684000", "164537.687000", "164537.690000", "164537.698000", "164537.701000", "164537.704000", "164537.713000", "164537.715000", "164537.724000", "164537.729000", "164617.676000", "164617.679000", "164617.682000", "164617.687000", "164617.690000", "164617.707000", "164617.710000", "164617.713000", "164617.718000", "164617.730000", "164657.675000", "164657.681000", "164657.684000", "164657.687000", "164657.692000", "164657.695000", "164657.712000", "164657.715000", "164657.717000", "164657.720000", "164657.723000", "164657.731000", "164657.733000", "164737.676000", "164737.679000", "164737.685000", "164737.691000", "164737.699000", "164737.705000", "164737.711000", "164737.716000", "164737.719000", "164737.727000", "164817.676000", "164817.682000", "164817.688000", "164817.693000", "164817.699000", "164817.702000", "164817.710000", "164817.713000", "164817.716000", "164817.719000", "164817.722000", "164817.724000", "164817.730000", "164857.677000", "164857.686000", "164857.689000", "164857.692000", "164857.695000", "164857.697000", "164857.700000", "164857.711000", "164857.714000", "164857.717000", "164857.723000", "164857.725000", "164857.728000", "164857.731000", "164937.677000", "164937.686000", "164937.696000", "164937.699000", "164937.702000", "164937.707000", "164937.713000", "164937.715000", "164937.718000", "164937.721000", "164937.729000", "164956.605000", "164956.608000", "164956.613000", "164956.616000", "164956.620000", "164956.623000", "164956.625000", "164956.631000"],
      "InstanceNumber": [1, 3, 4, 8, 9, 10, 11, 14, 15, 18, 19, 20, 21, 22, 25, 28, 29, 30, 32, 33, 35, 36, 37, 39, 40, 42, 45, 46, 48, 49, 51, 52, 54, 55, 57, 58, 60, 62, 63, 66, 67, 68, 69, 70, 71, 72, 73, 74, 75, 76, 78, 79, 80, 82, 83, 84, 85, 88, 89, 90, 93, 94, 95, 96, 97, 98, 102, 103, 104, 106, 107, 108, 110, 111, 112, 115, 116, 117, 120, 121, 124, 126, 127, 128, 129, 131, 132, 138, 139, 140, 142, 146, 147, 149, 150, 151, 153, 154, 157, 158, 159, 160, 161, 164, 165, 167, 168, 170, 172, 175, 177, 179, 181, 182, 185, 187, 189, 191, 193, 195, 196, 199, 200, 201, 202, 203, 204, 206, 207, 210, 211, 212, 213, 214, 215, 219, 220, 221, 223, 224, 225, 226, 227, 230, 231, 232, 233, 235, 237, 238, 239, 240, 243, 247, 248, 250, 251, 252, 253, 254, 256],
      "LargestImagePixelValue": [896, 883, 883, 864, 904, 925, 904, 895, 894, 880, 895, 885, 883, 884, 884, 876, 889, 883, 883, 879, 874, 872, 865, 875, 876, 874, 881, 886, 867, 996, 922, 886, 861, 859, 861, 870, 892, 928, 925, 908, 930, 845, 934, 915, 898, 898, 877, 898, 883, 898, 912, 906, 895, 890, 888, 889, 884, 878, 874, 871, 866, 866, 865, 940, 1069, 960, 935, 893, 835, 894, 846, 859, 930, 866, 999, 907, 902, 907, 840, 907, 853, 855, 886, 872, 867, 869, 870, 854, 871, 890, 916, 858, 869, 875, 870, 873, 865, 874, 864, 866, 865, 864, 863, 865, 871, 869, 870, 869, 866, 860, 860, 859, 857, 860, 857, 861, 942, 864, 849, 855, 864, 878, 882, 878, 875, 870, 866, 861, 856, 860, 976, 897, 875, 860, 865, 841, 847, 843, 856, 860, 860, 856, 856, 863, 864, 861, 859, 871, 862, 861, 858, 860, 914, 950, 879, 865, 865, 872, 881, 885, 884],
      "WindowCenter": [484.0, 482.0, 482.0, 483.0, 486.0, 484.0, 483.0, 483.0, 482.0, 482.0, 482.0, 482.0, 483.0, 482.0, 483.0, 482.0, 482.0, 483.0, 482.0, 482.0, 481.0, 481.0, 479.0, 480.0, 480.0, 480.0, 481.0, 481.0, 482.0, 494.0, 483.0, 480.0, 475.0, 474.0, 474.0, 475.0, 477.0, 480.0, 478.0, 484.0, 481.0, 483.0, 485.0, 484.0, 480.0, 479.0, 479.0, 473.0, 469.0, 468.0, 471.0, 473.0, 474.0, 477.0, 476.0, 478.0, 478.0, 481.0, 481.0, 481.0, 482.0, 482.0, 482.0, 487.0, 494.0, 490.0, 489.0, 486.0, 483.0, 478.0, 474.0, 474.0, 484.0, 480.0, 482.0, 475.0, 483.0, 479.0, 483.0, 485.0, 478.0, 479.0, 480.0, 478.0, 479.0, 479.0, 479.0, 482.0, 481.0, 483.0, 483.0, 476.0, 476.0, 479.0, 479.0, 480.0, 479.0, 480.0, 482.0, 482.0, 482.0, 482.0, 481.0, 480.0, 480.0, 480.0, 481.0, 481.0, 483.0, 482.0, 482.0, 481.0, 483.0, 482.0, 482.0, 482.0, 487.0, 486.0, 481.0, 479.0, 478.0, 475.0, 476.0, 477.0, 478.0, 479.0, 480.0, 481.0, 482.0, 486.0, 491.0, 489.0, 485.0, 481.0, 479.0, 475.0, 476.0, 477.0, 477.0, 478.0, 478.0, 479.0, 480.0, 482.0, 482.0, 482.0, 482.0, 484.0, 483.0, 483.0, 483.0, 482.0, 488.0, 483.0, 482.0, 477.0, 477.0, 476.0, 475.0, 475.0, 476.0],
      "WindowWidth": [1009.0, 1005.0, 1004.0, 1006.0, 1011.0, 1008.0, 1006.0, 1006.0, 1004.0, 1004.0, 1004.0, 1005.0, 1005.0, 1005.0, 1006.0, 1004.0, 1005.0, 1006.0, 1004.0, 1004.0, 1003.0, 1002.0, 999.0, 999.0, 1000.0, 1000.0, 1002.0, 1002.0, 1004.0, 1025.0, 1007.0, 1001.0, 989.0, 989.0, 988.0, 990.0, 993.0, 1000.0, 996.0, 1008.0, 1002.0, 1006.0, 1009.0, 1009.0, 1000.0, 998.0, 999.0, 986.0, 979.0, 976.0, 983.0, 985.0, 988.0, 993.0, 993.0, 995.0, 996.0, 1002.0, 1002.0, 1002.0, 1004.0, 1004.0, 1004.0, 1013.0, 1026.0, 1021.0, 1018.0, 1012.0, 1006.0, 997.0, 988.0, 989.0, 1008.0, 1001.0, 1003.0, 989.0, 1005.0, 999.0, 1006.0, 1010.0, 995.0, 997.0, 1000.0, 996.0, 998.0, 997.0, 998.0, 1004.0, 1003.0, 1006.0, 1007.0, 992.0, 993.0, 997.0, 998.0, 999.0, 999.0, 1000.0, 1003.0, 1004.0, 1005.0, 1004.0, 1002.0, 1000.0, 1000.0, 1000.0, 1002.0, 1002.0, 1005.0, 1004.0, 1004.0, 1003.0, 1005.0, 1004.0, 1004.0, 1004.0, 1014.0, 1011.0, 1001.0, 998.0, 995.0, 991.0, 991.0, 993.0, 995.0, 998.0, 999.0, 1003.0, 1003.0, 1011.0, 1023.0, 1017.0, 1011.0, 1003.0, 997.0, 991.0, 992.0, 994.0, 995.0, 996.0, 997.0, 998.0, 999.0, 1003.0, 1003.0, 1003.0, 1005.0, 1008.0, 1006.0, 1006.0, 1005.0, 1005.0, 1016.0, 1007.0, 1005.0, 995.0, 994.0, 991.0, 990.0, 990.0, 991.0]
    },
    "slices": {}
  }
}