{
  "AcquisitionMatrixPE": 64,
  "AcquisitionNumber": 1,
  "AcquisitionTime": "17:10:28.057500",
  "BandwidthPerPixelPhaseEncode": 40.064,
  "BaseResolution": 64,
  "BodyPartExamined": "BRAIN",
  "ConsistencyInfo": "N4_VD13D_LATEST_20130810",
  "ConversionSoftware": "dcm2niix",
  "ConversionSoftwareVersion": "v1.0.20191031",
  "DerivedVendorReportedEchoSpacing": 0.000780002,
  "DeviceSerialNumber": "67007",
  "DwellTime": 5.3e-06,
  "EchoTime": 0.03,
  "EchoTrainLength": 31,
  "EffectiveEchoSpacing": 0.000390001,
  "FlipAngle": 75,
  "ImageOrientationPatientDICOM": [0.999191, 0.0400351, 0.00385328, -0.0401317, 0.998758, 0.0295302],
  "ImageType": [
    "ORIGINAL",
    "PRIMARY",
    "M",
    "ND",
    "NORM",
    "MOSAIC"
],
  "ImagingFrequency": 123.211,
  "InPlanePhaseEncodingDirectionDICOM": "ROW",
  "InstitutionAddress": "Perth_Drive_100_London_Ontario_CA_N6A_5K8",
  "InstitutionName": "Robarts-CFMM",
  "InstitutionalDepartmentName": "CFMM",
  "MRAcquisitionType": "2D",
  "MagneticFieldStrength": 3,
  "Manufacturer": "Siemens",
  "ManufacturersModelName": "Prisma_fit",
  "Modality": "MR",
  "ParallelReductionFactorInPlane": 2,
  "PartialFourier": 1,
  "PatientPosition": "HFS",
  "PercentPhaseFOV": 100,
  "PhaseEncodingDirection": "i",
  "PhaseEncodingSteps": 63,
  "PhaseResolution": 1,
  "PixelBandwidth": 1475,
  "ProcedureStepDescription": "Owen_Naci",
  "ProtocolName": "Resting_State_deep_sed",
  "PulseSequenceDetails": "%SiemensSeq%_ep2d_bold",
  "ReceiveCoilActiveElements": "HEA;HEP",
  "ReceiveCoilName": "Head_32",
  "ReconMatrixPE": 64,
  "RefLinesPE": 24,
  "RepetitionTime": 2,
  "SAR": 0.0907574,
  "ScanOptions": "FS",
  "ScanningSequence": "EP",
  "SequenceName": "_epfid2d1_64",
  "SequenceVariant": "SK",
  "SeriesDescription": "Resting_State_deep_sed",
  "SeriesNumber": 19,
  "ShimSetting": [5245, -6181, -3804, 488, -41, 20, 22, 9],
  "SliceThickness": 3,
  "SliceTiming": [1.92, 1.86, 1.8, 1.74, 1.68, 1.62, 1.56, 1.5, 1.44, 1.38, 1.32, 1.26, 1.2, 1.14, 1.08, 1.02, 0.96, 0.9, 0.84, 0.78, 0.72, 0.66, 0.6, 0.54, 0.48, 0.42, 0.36, 0.3, 0.24, 0.18, 0.12, 0.06, 0],
  "SoftwareVersions": "syngo_MR_D13D",
  "SpacingBetweenSlices": 3.75,
  "StationName": "AWP67007",
  "TaskName": "restdeep",
  "TotalReadoutTime": 0.0245701,
  "TxRefAmp": 271.966,
  "dcmmeta_affine": [
    [-2.997572422027588, -0.12039495259523392, 0.009998445399105549, 95.10115814208984],
    [-0.12010534852743149, 2.9962737560272217, 0.11122836172580719, -83.29228973388672],
    [0.011559844017028809, -0.08859045803546906, 3.7483365535736084, -38.92499923706055],
    [0.0, 0.0, 0.0, 1.0]
],
  "dcmmeta_reorient_transform": [
    [0.0, -1.0, 0.0, 63.0],
    [1.0, 0.0, 0.0, 0.0],
    [0.0, 0.0, 1.0, 0.0],
    [0.0, 0.0, 0.0, 1.0]
],
  "dcmmeta_shape": [64, 64, 33, 256],
  "dcmmeta_slice_dim": 2,
  "dcmmeta_version": 0.6,
  "global": {
    "const": {
      "AcquisitionMatrix": [0, 64, 64, 0],
      "AngioFlag": "N",
      "BitsAllocated": 16,
      "BitsStored": 12,
      "BodyPartExamined": "BRAIN",
      "Columns": 384,
      "EchoNumbers": 1,
      "EchoTime": 30.0,
      "EchoTrainLength": 31,
      "FlipAngle": 75.0,
      "HighBit": 11,
      "ImageOrientationPatient": [0.99919084349536, 0.04003511582398, 0.00385328119919, -0.0401316505348, 0.99875793900998, 0.02953015221575],
      "ImagePositionPatient": [-547.86468890673, -604.09362561128, -60.530245433874],
      "ImageType": [
        "ORIGINAL",
        "PRIMARY",
        "M",
        "ND",
        "NORM",
        "MOSAIC"
],
      "ImagedNucleus": "1H",
      "ImagingFrequency": 123.211186,
      "InPlanePhaseEncodingDirection": "ROW",
      "MRAcquisitionType": "2D",
      "MagneticFieldStrength": 3.0,
      "Manufacturer": "SIEMENS",
      "ManufacturerModelName": "Prisma_fit",
      "Modality": "MR",
      "NumberOfAverages": 1.0,
      "NumberOfPhaseEncodingSteps": 63,
      "PercentPhaseFieldOfView": 100.0,
      "PercentSampling": 100.0,
      "PerformedProcedureStepStartTime": "151755.248000",
      "PhotometricInterpretation": "MONOCHROME2",
      "PixelBandwidth": 1475.0,
      "PixelRepresentation": 0,
      "PixelSpacing": [3.0, 3.0],
      "ProtocolName": "Resting State_deep sed",
      "RepetitionTime": 2000.0,
      "Rows": 384,
      "SAR": 0.09075735883566,
      "SamplesPerPixel": 1,
      "ScanOptions": "FS",
      "ScanningSequence": "EP",
      "SequenceName": "*epfid2d1_64",
      "SequenceVariant": "SK",
      "SeriesDescription": "Resting State_deep sed",
      "SeriesNumber": 19,
      "SeriesTime": "171120.371000",
      "SliceLocation": -41.124694281951,
      "SliceThickness": 3.0,
      "SmallestImagePixelValue": 0,
      "SoftwareVersions": "syngo MR D13D",
      "SpacingBetweenSlices": 3.7499999368645,
      "SpecificCharacterSet": "ISO_IR 100",
      "StudyID": "1",
      "StudyTime": "151755.148000",
      "TimeOfLastCalibration": ["123723.000000", "123723.000000"],
      "TransmitCoilName": "Body",
      "VariableFlipAngleFlag": "N",
      "WindowCenterWidthExplanation": "Algo1",
      "dBdt": 0.0},
    "slices": {}
  },
  "time": {
    "samples": {
      "AcquisitionNumber": [1, 2, 3, 4, 5, 6, 7, 8, 9, 10, 11, 12, 13, 14, 15, 16, 17, 18, 19, 20, 21, 22, 23, 24, 25, 26, 27, 28, 29, 30, 31, 32, 33, 34, 35, 36, 37, 38, 39, 40, 41, 42, 43, 44, 45, 46, 47, 48, 49, 50, 51, 52, 53, 54, 55, 56, 57, 58, 59, 60, 61, 62, 63, 64, 65, 66, 67, 68, 69, 70, 71, 72, 73, 74, 75, 76, 77, 78, 79, 80, 81, 82, 83, 84, 85, 86, 87, 88, 89, 90, 91, 92, 93, 94, 95, 96, 97, 98, 99, 100, 101, 102, 103, 104, 105, 106, 107, 108, 109, 110, 111, 112, 113, 114, 115, 116, 117, 118, 119, 120, 121, 122, 123, 124, 125, 126, 127, 128, 129, 130, 131, 132, 133, 134, 135, 136, 137, 138, 139, 140, 141, 142, 143, 144, 145, 146, 147, 148, 149, 150, 151, 152, 153, 154, 155, 156, 157, 158, 159, 160, 161, 162, 163, 164, 165, 166, 167, 168, 169, 170, 171, 172, 173, 174, 175, 176, 177, 178, 179, 180, 181, 182, 183, 184, 185, 186, 187, 188, 189, 190, 191, 192, 193, 194, 195, 196, 197, 198, 199, 200, 201, 202, 203, 204, 205, 206, 207, 208, 209, 210, 211, 212, 213, 214, 215, 216, 217, 218, 219, 220, 221, 222, 223, 224, 225, 226, 227, 228, 229, 230, 231, 232, 233, 234, 235, 236, 237, 238, 239, 240, 241, 242, 243, 244, 245, 246, 247, 248, 249, 250, 251, 252, 253, 254, 255, 256],
      "AcquisitionTime": ["171028.057500", "171030.057500", "171032.057500", "171034.057500", "171036.057500", "171038.057500", "171040.057500", "171042.057500", "171044.057500", "171046.057500", "171048.057500", "171050.057500", "171052.057500", "171054.057500", "171056.057500", "171058.057500", "171100.057500", "171102.057500", "171104.057500", "171106.057500", "171108.057500", "171110.057500", "171112.057500", "171114.057500", "171116.057500", "171118.057500", "171120.057500", "171122.057500", "171124.057500", "171126.057500", "171128.057500", "171130.057500", "171132.057500", "171134.057500", "171136.057500", "171138.057500", "171140.057500", "171142.057500", "171144.057500", "171146.057500", "171148.057500", "171150.057500", "171152.057500", "171154.057500", "171156.057500", "171158.057500", "171200.057500", "171202.057500", "171204.057500", "171206.057500", "171208.060000", "171210.060000", "171212.060000", "171214.060000", "171216.060000", "171218.060000", "171220.060000", "171222.060000", "171224.060000", "171226.060000", "171228.060000", "171230.060000", "171232.060000", "171234.060000", "171236.060000", "171238.060000", "171240.060000", "171242.060000", "171244.060000", "171246.060000", "171248.060000", "171250.060000", "171252.060000", "171254.060000", "171256.060000", "171258.060000", "171300.060000", "171302.060000", "171304.060000", "171306.060000", "171308.060000", "171310.060000", "171312.060000", "171314.060000", "171316.060000", "171318.060000", "171320.060000", "171322.060000", "171324.060000", "171326.060000", "171328.060000", "171330.060000", "171332.060000", "171334.060000", "171336.060000", "171338.060000", "171340.060000", "171342.060000", "171344.060000", "171346.060000", "171348.060000", "171350.060000", "171352.060000", "171354.060000", "171356.060000", "171358.060000", "171400.060000", "171402.060000", "171404.060000", "171406.060000", "171408.060000", "171410.060000", "171412.060000", "171414.060000", "171416.060000", "171418.060000", "171420.060000", "171422.060000", "171424.060000", "171426.060000", "171428.060000", "171430.060000", "171432.060000", "171434.060000", "171436.060000", "171438.060000", "171440.060000", "171442.060000", "171444.060000", "171446.060000", "171448.060000", "171450.060000", "171452.060000", "171454.060000", "171456.060000", "171458.060000", "171500.060000", "171502.060000", "171504.060000", "171506.060000", "171508.060000", "171510.060000", "171512.060000", "171514.060000", "171516.060000", "171518.060000", "171520.060000", "171522.060000", "171524.060000", "171526.060000", "171528.060000", "171530.060000", "171532.060000", "171534.060000", "171536.060000", "171538.060000", "171540.060000", "171542.060000", "171544.060000", "171546.060000", "171548.060000", "171550.060000", "171552.060000", "171554.060000", "171556.060000", "171558.060000", "171600.060000", "171602.060000", "171604.060000", "171606.060000", "171608.060000", "171610.060000", "171612.060000", "171614.060000", "171616.060000", "171618.060000", "171620.060000", "171622.060000", "171624.060000", "171626.060000", "171628.060000", "171630.060000", "171632.060000", "171634.060000", "171636.060000", "171638.060000", "171640.060000", "171642.060000", "171644.060000", "171646.060000", "171648.060000", "171650.060000", "171652.060000", "171654.060000", "171656.060000", "171658.060000", "171700.060000", "171702.060000", "171704.060000", "171706.060000", "171708.060000", "171710.060000", "171712.060000", "171714.060000", "171716.060000", "171718.060000", "171720.060000", "171722.060000", "171724.060000", "171726.060000", "171728.060000", "171730.060000", "171732.060000", "171734.060000", "171736.060000", "171738.060000", "171740.060000", "171742.060000", "171744.060000", "171746.060000", "171748.060000", "171750.060000", "171752.060000", "171754.060000", "171756.060000", "171758.060000", "171800.060000", "171802.060000", "171804.060000", "171806.060000", "171808.060000", "171810.060000", "171812.060000", "171814.060000", "171816.060000", "171818.060000", "171820.060000", "171822.060000", "171824.060000", "171826.060000", "171828.060000", "171830.060000", "171832.060000", "171834.060000", "171836.060000", "171838.060000", "171840.060000", "171842.060000", "171844.060000", "171846.060000", "171848.060000", "171850.060000", "171852.060000", "171854.060000", "171856.060000", "171858.060000"],
      "ContentTime": ["171120.376000", "171120.379000", "171120.382000", "171120.385000", "171120.388000", "171120.391000", "171120.393000", "171120.396000", "171120.399000", "171120.402000", "171120.404000", "171120.407000", "171120.410000", "171120.412000", "171120.415000", "171120.418000", "171120.420000", "171120.423000", "171120.426000", "171120.428000", "171120.431000", "171120.434000", "171120.437000", "171120.440000", "171120.442000", "171120.445000", "171120.447000", "171200.370000", "171200.373000", "171200.376000", "171200.378000", "171200.381000", "171200.384000", "171200.387000", "171200.389000", "171200.392000", "171200.394000", "171200.397000", "171200.400000", "171200.403000", "171200.405000", "171200.408000", "171200.411000", "171200.414000", "171200.417000", "171200.419000", "171200.422000", "171240.368000", "171240.372000", "171240.375000", "171240.377000", "171240.380000", "171240.383000", "171240.386000", "171240.389000", "171240.391000", "171240.394000", "171240.397000", "171240.399000", "171240.402000", "171240.405000", "171240.407000", "171240.410000", "171240.413000", "171240.416000", "171240.418000", "171240.421000", "171320.368000", "171320.372000", "171320.375000", "171320.377000", "171320.380000", "171320.383000", "171320.386000", "171320.389000", "171320.391000", "171320.394000", "171320.397000", "171320.400000", "171320.403000", "171320.406000", "171320.409000", "171320.412000", "171320.415000", "171320.417000", "171320.420000", "171320.423000", "171400.369000", "171400.373000", "171400.375000", "171400.378000", "171400.381000", "171400.384000", "171400.387000", "171400.389000", "171400.392000", "171400.395000", "171400.398000", "171400.401000", "171400.403000", "171400.406000", "171400.409000", "171400.412000", "171400.415000", "171400.418000", "171400.420000", "171400.423000", "171440.368000", "171440.371000", "171440.374000", "171440.377000", "171440.380000", "171440.383000", "171440.386000", "171440.388000", "171440.391000", "171440.394000", "171440.397000", "171440.400000", "171440.402000", "171440.405000", "171440.408000", "171440.410000", "171440.413000", "171440.416000", "171440.419000", "171440.421000", "171520.368000", "171520.372000", "171520.374000", "171520.377000", "171520.380000", "171520.383000", "171520.386000", "171520.388000", "171520.391000", "171520.394000", "171520.397000", "171520.399000", "171520.402000", "171520.405000", "171520.408000", "171520.411000", "171520.414000", "171520.416000", "171520.419000", "171520.422000", "171600.369000", "171600.372000", "171600.375000", "171600.378000", "171600.381000", "171600.384000", "171600.386000", "171600.389000", "171600.392000", "171600.394000", "171600.397000", "171600.400000", "171600.403000", "171600.405000", "171600.408000", "171600.411000", "171600.414000", "171600.417000", "171600.419000", "171600.422000", "171620.369000", "171620.372000", "171620.374000", "171620.377000", "171620.380000", "171620.383000", "171620.386000", "171620.388000", "171620.391000", "171620.394000", "171700.368000", "171700.371000", "171700.374000", "171700.376000", "171700.379000", "171700.382000", "171700.385000", "171700.388000", "171700.390000", "171700.393000", "171700.396000", "171700.399000", "171700.401000", "171700.404000", "171700.407000", "171700.410000", "171700.413000", "171700.416000", "171700.419000", "171700.422000", "171740.368000", "171740.371000", "171740.374000", "171740.377000", "171740.380000", "171740.383000", "171740.386000", "171740.388000", "171740.391000", "171740.394000", "171740.397000", "171740.400000", "171740.403000", "171740.406000", "171740.408000", "171740.411000", "171740.414000", "171740.417000", "171740.420000", "171740.423000", "171820.369000", "171820.372000", "171820.375000", "171820.378000", "171820.380000", "171820.383000", "171820.398000", "171820.401000", "171820.404000", "171820.407000", "171820.410000", "171820.413000", "171820.415000", "171820.418000", "171820.421000", "171820.424000", "171820.427000", "171820.429000", "171820.432000", "171820.435000", "171858.277000", "171858.281000", "171858.284000", "171858.286000", "171858.289000", "171858.292000", "171858.296000", "171858.299000", "171858.302000", "171858.305000", "171858.309000", "171858.315000", "171858.320000", "171858.324000", "171858.328000", "171858.331000", "171858.335000", "171858.339000", "171858.342000"],
      "InstanceCreationTime": ["171120.376000", "171120.379000", "171120.382000", "171120.385000", "171120.388000", "171120.391000", "171120.393000", "171120.396000", "171120.399000", "171120.402000", "171120.404000", "171120.407000", "171120.410000", "171120.412000", "171120.415000", "171120.418000", "171120.420000", "171120.423000", "171120.426000", "171120.428000", "171120.431000", "171120.434000", "171120.437000", "171120.440000", "171120.442000", "171120.445000", "171120.447000", "171200.370000", "171200.373000", "171200.376000", "171200.378000", "171200.381000", "171200.384000", "171200.387000", "171200.389000", "171200.392000", "171200.394000", "171200.397000", "171200.400000", "171200.403000", "171200.405000", "171200.408000", "171200.411000", "171200.414000", "171200.417000", "171200.419000", "171200.422000", "171240.368000", "171240.372000", "171240.375000", "171240.377000", "171240.380000", "171240.383000", "171240.386000", "171240.389000", "171240.391000", "171240.394000", "171240.397000", "171240.399000", "171240.402000", "171240.405000", "171240.407000", "171240.410000", "171240.413000", "171240.416000", "171240.418000", "171240.421000", "171320.368000", "171320.372000", "171320.375000", "171320.377000", "171320.380000", "171320.383000", "171320.386000", "171320.389000", "171320.391000", "171320.394000", "171320.397000", "171320.400000", "171320.403000", "171320.406000", "171320.409000", "171320.412000", "171320.415000", "171320.417000", "171320.420000", "171320.423000", "171400.369000", "171400.373000", "171400.375000", "171400.378000", "171400.381000", "171400.384000", "171400.387000", "171400.389000", "171400.392000", "171400.395000", "171400.398000", "171400.401000", "171400.403000", "171400.406000", "171400.409000", "171400.412000", "171400.415000", "171400.418000", "171400.420000", "171400.423000", "171440.368000", "171440.371000", "171440.374000", "171440.377000", "171440.380000", "171440.383000", "171440.386000", "171440.388000", "171440.391000", "171440.394000", "171440.397000", "171440.400000", "171440.402000", "171440.405000", "171440.408000", "171440.410000", "171440.413000", "171440.416000", "171440.419000", "171440.421000", "171520.368000", "171520.372000", "171520.374000", "171520.377000", "171520.380000", "171520.383000", "171520.386000", "171520.388000", "171520.391000", "171520.394000", "171520.397000", "171520.399000", "171520.402000", "171520.405000", "171520.408000", "171520.411000", "171520.414000", "171520.416000", "171520.419000", "171520.422000", "171600.369000", "171600.372000", "171600.375000", "171600.378000", "171600.381000", "171600.384000", "171600.386000", "171600.389000", "171600.392000", "171600.394000", "171600.397000", "171600.400000", "171600.403000", "171600.405000", "171600.408000", "171600.411000", "171600.414000", "171600.417000", "171600.419000", "171600.422000", "171620.369000", "171620.372000", "171620.374000", "171620.377000", "171620.380000", "171620.383000", "171620.386000", "171620.388000", "171620.391000", "171620.394000", "171700.368000", "171700.371000", "171700.374000", "171700.376000", "171700.379000", "171700.382000", "171700.385000", "171700.388000", "171700.390000", "171700.393000", "171700.396000", "171700.399000", "171700.401000", "171700.404000", "171700.407000", "171700.410000", "171700.413000", "171700.416000", "171700.419000", "171700.422000", "171740.368000", "171740.371000", "171740.374000", "171740.377000", "171740.380000", "171740.383000", "171740.386000", "171740.388000", "171740.391000", "171740.394000", "171740.397000", "171740.400000", "171740.403000", "171740.406000", "171740.408000", "171740.411000", "171740.414000", "171740.417000", "171740.420000", "171740.423000", "171820.369000", "171820.372000", "171820.375000", "171820.378000", "171820.380000", "171820.383000", "171820.398000", "171820.401000", "171820.404000", "171820.407000", "171820.410000", "171820.413000", "171820.415000", "171820.418000", "171820.421000", "171820.424000", "171820.427000", "171820.429000", "171820.432000", "171820.435000", "171858.277000", "171858.281000", "171858.284000", "171858.286000", "171858.289000", "171858.292000", "171858.296000", "171858.299000", "171858.302000", "171858.305000", "171858.309000", "171858.315000", "171858.320000", "171858.324000", "171858.328000", "171858.331000", "171858.335000", "171858.339000", "171858.342000"],
      "InstanceNumber": [1, 2, 3, 4, 5, 6, 7, 8, 9, 10, 11, 12, 13, 14, 15, 16, 17, 18, 19, 20, 21, 22, 23, 24, 25, 26, 27, 28, 29, 30, 31, 32, 33, 34, 35, 36, 37, 38, 39, 40, 41, 42, 43, 44, 45, 46, 47, 48, 49, 50, 51, 52, 53, 54, 55, 56, 57, 58, 59, 60, 61, 62, 63, 64, 65, 66, 67, 68, 69, 70, 71, 72, 73, 74, 75, 76, 77, 78, 79, 80, 81, 82, 83, 84, 85, 86, 87, 88, 89, 90, 91, 92, 93, 94, 95, 96, 97, 98, 99, 100, 101, 102, 103, 104, 105, 106, 107, 108, 109, 110, 111, 112, 113, 114, 115, 116, 117, 118, 119, 120, 121, 122, 123, 124, 125, 126, 127, 128, 129, 130, 131, 132, 133, 134, 135, 136, 137, 138, 139, 140, 141, 142, 143, 144, 145, 146, 147, 148, 149, 150, 151, 152, 153, 154, 155, 156, 157, 158, 159, 160, 161, 162, 163, 164, 165, 166, 167, 168, 169, 170, 171, 172, 173, 174, 175, 176, 177, 178, 179, 180, 181, 182, 183, 184, 185, 186, 187, 188, 189, 190, 191, 192, 193, 194, 195, 196, 197, 198, 199, 200, 201, 202, 203, 204, 205, 206, 207, 208, 209, 210, 211, 212, 213, 214, 215, 216, 217, 218, 219, 220, 221, 222, 223, 224, 225, 226, 227, 228, 229, 230, 231, 232, 233, 234, 235, 236, 237, 238, 239, 240, 241, 242, 243, 244, 245, 246, 247, 248, 249, 250, 251, 252, 253, 254, 255, 256],
      "LargestImagePixelValue": [932, 930, 929, 901, 915, 927, 918, 881, 914, 921, 913, 904, 911, 909, 938, 911, 920, 895, 939, 920, 928, 883, 890, 877, 942, 908, 918, 880, 902, 906, 897, 913, 929, 879, 917, 903, 917, 912, 915, 915, 913, 916, 908, 891, 911, 907, 908, 911, 920, 914, 913, 940, 894, 931, 920, 917, 894, 921, 913, 925, 913, 918, 887, 938, 909, 914, 900, 921, 892, 927, 910, 933, 889, 923, 886, 947, 911, 918, 906, 911, 904, 898, 910, 919, 893, 911, 899, 897, 926, 921, 911, 908, 899, 909, 902, 904, 900, 916, 909, 914, 895, 909, 915, 902, 912, 899, 910, 912, 903, 892, 882, 909, 906, 892, 922, 898, 918, 896, 913, 911, 882, 906, 874, 890, 912, 909, 895, 920, 930, 911, 912, 935, 909, 901, 898, 909, 909, 906, 899, 900, 911, 899, 903, 888, 914, 903, 907, 904, 878, 883, 912, 903, 894, 902, 910, 897, 906, 900, 910, 881, 905, 907, 901, 912, 903, 945, 902, 913, 902, 907, 910, 887, 902, 924, 902, 897, 894, 905, 886, 903, 910, 894, 909, 926, 909, 882, 903, 899, 903, 907, 893, 911, 896, 892, 907, 912, 905, 885, 918, 932, 886, 899, 910, 883, 904, 912, 921, 907, 915, 916, 903, 901, 913, 880, 914, 912, 893, 896, 896, 907, 890, 902, 895, 922, 887, 887, 908, 890, 900, 906, 882, 902, 907, 890, 896, 898, 896, 908, 897, 909, 933, 907, 882, 929, 902, 904, 906, 886, 906, 892, 906, 898, 906, 921, 908, 903],
      "WindowCenter": [493.0, 493.0, 492.0, 491.0, 492.0, 493.0, 492.0, 491.0, 492.0, 492.0, 492.0, 491.0, 492.0, 490.0, 492.0, 492.0, 492.0, 491.0, 492.0, 493.0, 492.0, 491.0, 491.0, 491.0, 492.0, 492.0, 491.0, 491.0, 492.0, 492.0, 492.0, 492.0, 492.0, 491.0, 492.0, 492.0, 492.0, 492.0, 492.0, 492.0, 492.0, 491.0, 491.0, 492.0, 492.0, 491.0, 491.0, 492.0, 492.0, 492.0, 492.0, 493.0, 491.0, 492.0, 492.0, 492.0, 491.0, 492.0, 492.0, 493.0, 492.0, 491.0, 491.0, 492.0, 493.0, 492.0, 491.0, 491.0, 491.0, 492.0, 493.0, 492.0, 490.0, 491.0, 491.0, 492.0, 493.0, 492.0, 491.0, 491.0, 492.0, 491.0, 492.0, 492.0, 492.0, 492.0, 492.0, 491.0, 491.0, 493.0, 492.0, 492.0, 491.0, 493.0, 492.0, 491.0, 491.0, 492.0, 492.0, 492.0, 491.0, 492.0, 492.0, 491.0, 491.0, 491.0, 492.0, 493.0, 492.0, 491.0, 492.0, 493.0, 492.0, 491.0, 492.0, 492.0, 493.0, 492.0, 492.0, 491.0, 490.0, 491.0, 491.0, 492.0, 493.0, 492.0, 492.0, 493.0, 493.0, 492.0, 492.0, 493.0, 492.0, 491.0, 491.0, 493.0, 492.0, 491.0, 493.0, 493.0, 492.0, 491.0, 491.0, 492.0, 493.0, 492.0, 491.0, 490.0, 490.0, 490.0, 492.0, 493.0, 492.0, 492.0, 493.0, 492.0, 491.0, 492.0, 491.0, 492.0, 492.0, 492.0, 493.0, 493.0, 491.0, 492.0, 492.0, 493.0, 492.0, 490.0, 491.0, 491.0, 492.0, 492.0, 493.0, 492.0, 492.0, 491.0, 492.0, 494.0, 493.0, 492.0, 492.0, 493.0, 493.0, 492.0, 491.0, 492.0, 492.0, 492.0, 492.0, 492.0, 491.0, 491.0, 492.0, 494.0, 492.0, 491.0, 492.0, 493.0, 491.0, 492.0, 492.0, 491.0, 492.0, 494.0, 493.0, 492.0, 492.0, 493.0, 493.0, 492.0, 492.0, 491.0, 493.0, 493.0, 491.0, 491.0, 492.0, 492.0, 493.0, 491.0, 491.0, 491.0, 492.0, 491.0, 494.0, 492.0, 491.0, 492.0, 492.0, 493.0, 492.0, 492.0, 491.0, 492.0, 493.0, 493.0, 492.0, 491.0, 493.0, 493.0, 492.0, 493.0, 492.0, 492.0, 492.0, 491.0, 493.0, 492.0, 492.0, 491.0, 493.0, 493.0, 492.0, 492.0],
      "WindowWidth": [1026.0, 1025.0, 1023.0, 1021.0, 1023.0, 1024.0, 1022.0, 1021.0, 1023.0, 1023.0, 1022.0, 1022.0, 1022.0, 1020.0, 1023.0, 1024.0, 1022.0, 1020.0, 1023.0, 1024.0, 1022.0, 1021.0, 1020.0, 1022.0, 1024.0, 1022.0, 1022.0, 1021.0, 1022.0, 1022.0, 1023.0, 1024.0, 1023.0, 1021.0, 1023.0, 1023.0, 1023.0, 1023.0, 1023.0, 1024.0, 1023.0, 1022.0, 1022.0, 1024.0, 1023.0, 1021.0, 1021.0, 1022.0, 1023.0, 1023.0, 1024.0, 1024.0, 1021.0, 1024.0, 1023.0, 1022.0, 1021.0, 1023.0, 1024.0, 1024.0, 1022.0, 1022.0, 1022.0, 1023.0, 1024.0, 1023.0, 1021.0, 1022.0, 1022.0, 1024.0, 1024.0, 1023.0, 1020.0, 1022.0, 1022.0, 1024.0, 1024.0, 1022.0, 1021.0, 1022.0, 1024.0, 1022.0, 1022.0, 1022.0, 1023.0, 1024.0, 1023.0, 1022.0, 1022.0, 1025.0, 1023.0, 1022.0, 1021.0, 1026.0, 1023.0, 1020.0, 1021.0, 1023.0, 1023.0, 1023.0, 1021.0, 1022.0, 1023.0, 1022.0, 1022.0, 1022.0, 1024.0, 1025.0, 1023.0, 1021.0, 1023.0, 1025.0, 1023.0, 1022.0, 1023.0, 1023.0, 1024.0, 1023.0, 1023.0, 1022.0, 1020.0, 1021.0, 1022.0, 1023.0, 1024.0, 1023.0, 1022.0, 1025.0, 1024.0, 1023.0, 1023.0, 1024.0, 1023.0, 1021.0, 1022.0, 1024.0, 1023.0, 1022.0, 1025.0, 1024.0, 1023.0, 1022.0, 1021.0, 1023.0, 1025.0, 1023.0, 1022.0, 1020.0, 1020.0, 1021.0, 1024.0, 1025.0, 1022.0, 1023.0, 1025.0, 1024.0, 1022.0, 1022.0, 1022.0, 1024.0, 1024.0, 1022.0, 1025.0, 1024.0, 1021.0, 1023.0, 1023.0, 1024.0, 1022.0, 1020.0, 1020.0, 1022.0, 1024.0, 1024.0, 1024.0, 1024.0, 1023.0, 1022.0, 1023.0, 1026.0, 1024.0, 1022.0, 1022.0, 1025.0, 1024.0, 1023.0, 1022.0, 1024.0, 1022.0, 1023.0, 1023.0, 1023.0, 1021.0, 1022.0, 1024.0, 1026.0, 1023.0, 1023.0, 1024.0, 1024.0, 1022.0, 1022.0, 1023.0, 1022.0, 1024.0, 1026.0, 1024.0, 1023.0, 1024.0, 1026.0, 1025.0, 1023.0, 1023.0, 1022.0, 1026.0, 1024.0, 1021.0, 1023.0, 1023.0, 1023.0, 1024.0, 1021.0, 1021.0, 1022.0, 1023.0, 1022.0, 1026.0, 1024.0, 1021.0, 1023.0, 1023.0, 1025.0, 1022.0, 1023.0, 1022.0, 1024.0, 1024.0, 1024.0, 1023.0, 1022.0, 1027.0, 1025.0, 1023.0, 1024.0, 1023.0, 1024.0, 1023.0, 1021.0, 1024.0, 1023.0, 1022.0, 1021.0, 1025.0, 1024.0, 1023.0, 1023.0]
    },
    "slices": {}
  }
}