{
  "AcquisitionMatrixPE": 64,
  "AcquisitionNumber": 1,
  "AcquisitionTime": "20:26:3.887500",
  "BandwidthPerPixelPhaseEncode": 40.064,
  "BaseResolution": 64,
  "BodyPartExamined": "BRAIN",
  "ConsistencyInfo": "N4_VD13D_LATEST_20130810",
  "ConversionSoftware": "dcm2niix",
  "ConversionSoftwareVersion": "v1.0.20191031",
  "DerivedVendorReportedEchoSpacing": 0.000780002,
  "DeviceSerialNumber": "67007",
  "DwellTime": 5.3e-06,
  "EchoTime": 0.03,
  "EchoTrainLength": 31,
  "EffectiveEchoSpacing": 0.000390001,
  "FlipAngle": 75,
  "ImageOrientationPatientDICOM": [0.999015, 0.0421427, 0.013895, -0.0401246, 0.991632, -0.122704],
  "ImageType": [
    "ORIGINAL",
    "PRIMARY",
    "M",
    "ND",
    "NORM",
    "MOSAIC"
],
  "ImagingFrequency": 123.211,
  "InPlanePhaseEncodingDirectionDICOM": "ROW",
  "InstitutionAddress": "Perth_Drive_100_London_Ontario_CA_N6A_5K8",
  "InstitutionName": "Robarts_Research_Institute",
  "InstitutionalDepartmentName": "CFMM",
  "MRAcquisitionType": "2D",
  "MagneticFieldStrength": 3,
  "Manufacturer": "Siemens",
  "ManufacturersModelName": "Prisma_fit",
  "Modality": "MR",
  "ParallelReductionFactorInPlane": 2,
  "PartialFourier": 1,
  "PatientPosition": "HFS",
  "PercentPhaseFOV": 100,
  "PhaseEncodingDirection": "i",
  "PhaseEncodingSteps": 63,
  "PhaseResolution": 1,
  "PixelBandwidth": 1475,
  "ProcedureStepDescription": "Owen_Naci",
  "ProtocolName": "Resting_State_recovery",
  "PulseSequenceDetails": "%SiemensSeq%_ep2d_bold",
  "ReceiveCoilActiveElements": "HEA;HEP",
  "ReceiveCoilName": "Head_32",
  "ReconMatrixPE": 64,
  "RefLinesPE": 24,
  "RepetitionTime": 2,
  "SAR": 0.12892,
  "ScanOptions": "FS",
  "ScanningSequence": "EP",
  "SequenceName": "_epfid2d1_64",
  "SequenceVariant": "SK",
  "SeriesDescription": "Resting_State_recovery",
  "SeriesNumber": 25,
  "ShimSetting": [5280, -6156, -3661, 356, 40, 51, 23, 32],
  "SliceThickness": 3,
  "SliceTiming": [1.92, 1.86, 1.8, 1.74, 1.68, 1.62, 1.56, 1.5, 1.44, 1.38, 1.32, 1.26, 1.2, 1.14, 1.08, 1.02, 0.96, 0.9, 0.84, 0.78, 0.72, 0.66, 0.6, 0.54, 0.48, 0.42, 0.36, 0.3, 0.24, 0.18, 0.12, 0.06, 0],
  "SoftwareVersions": "syngo_MR_D13D",
  "SpacingBetweenSlices": 3.75,
  "StationName": "AWP67007",
  "TaskName": "restrecovery",
  "TotalReadoutTime": 0.0245701,
  "TxRefAmp": 288.366,
  "dcmmeta_affine": [
    [-2.9970450401306152, -0.12037375569343567, 0.07106153666973114, 95.74740600585938],
    [-0.1264280378818512, 2.974895715713501, -0.4575951397418976, -68.32610321044922],
    [0.04168485477566719, 0.3681113123893738, 3.7212977409362793, 21.92043685913086],
    [0.0, 0.0, 0.0, 1.0]
],
  "dcmmeta_reorient_transform": [
    [0.0, -1.0, 0.0, 63.0],
    [1.0, 0.0, 0.0, 0.0],
    [0.0, 0.0, 1.0, 0.0],
    [0.0, 0.0, 0.0, 1.0]
],
  "dcmmeta_shape": [64, 64, 33, 256],
  "dcmmeta_slice_dim": 2,
  "dcmmeta_version": 0.6,
  "global": {
    "const": {
      "AcquisitionMatrix": [0, 64, 64, 0],
      "AngioFlag": "N",
      "BitsAllocated": 16,
      "BitsStored": 12,
      "BodyPartExamined": "BRAIN",
      "Columns": 384,
      "EchoNumbers": 1,
      "EchoTime": 30.0,
      "EchoTrainLength": 31,
      "FlipAngle": 75.0,
      "HighBit": 11,
      "ImageOrientationPatient": [0.99901497733694, 0.04214267871957, 0.01389495184673, -0.0401245848044, 0.99163188903489, -0.1227037666226],
      "ImagePositionPatient": [-548.43124436411, -615.30411326106, 97.339679312838],
      "ImageType": [
        "ORIGINAL",
        "PRIMARY",
        "M",
        "ND",
        "NORM",
        "MOSAIC"
],
      "ImagedNucleus": "1H",
      "ImagingFrequency": 123.210996,
      "InPlanePhaseEncodingDirection": "ROW",
      "MRAcquisitionType": "2D",
      "MagneticFieldStrength": 3.0,
      "Manufacturer": "SIEMENS",
      "ManufacturerModelName": "Prisma_fit",
      "Modality": "MR",
      "NumberOfAverages": 1.0,
      "NumberOfPhaseEncodingSteps": 63,
      "PercentPhaseFieldOfView": 100.0,
      "PercentSampling": 100.0,
      "PerformedProcedureStepStartTime": "180215.790000",
      "PhotometricInterpretation": "MONOCHROME2",
      "PixelBandwidth": 1475.0,
      "PixelRepresentation": 0,
      "PixelSpacing": [3.0, 3.0],
      "ProtocolName": "Resting State_recovery",
      "RepetitionTime": 2000.0,
      "Rows": 384,
      "SAR": 0.12891953387651,
      "SamplesPerPixel": 1,
      "ScanOptions": "FS",
      "ScanningSequence": "EP",
      "SequenceName": "*epfid2d1_64",
      "SequenceVariant": "SK",
      "SeriesDescription": "Resting State_recovery",
      "SeriesNumber": 25,
      "SeriesTime": "202659.525000",
      "SliceLocation": 31.90456591705,
      "SliceThickness": 3.0,
      "SmallestImagePixelValue": 0,
      "SoftwareVersions": "syngo MR D13D",
      "SpacingBetweenSlices": 3.7499999908182,
      "SpecificCharacterSet": "ISO_IR 100",
      "StudyID": "1",
      "StudyTime": "180215.680000",
      "TimeOfLastCalibration": ["123723.000000", "123723.000000"],
      "TransmitCoilName": "Body",
      "VariableFlipAngleFlag": "N",
      "WindowCenterWidthExplanation": "Algo1",
      "dBdt": 0.0},
    "slices": {}
  },
  "time": {
    "samples": {
      "AcquisitionNumber": [1, 2, 3, 4, 5, 6, 7, 8, 9, 10, 11, 12, 13, 14, 15, 16, 17, 18, 19, 20, 21, 22, 23, 24, 25, 26, 27, 28, 29, 30, 31, 32, 33, 34, 35, 36, 37, 38, 39, 40, 41, 42, 43, 44, 45, 46, 47, 48, 49, 50, 51, 52, 53, 54, 55, 56, 57, 58, 59, 60, 61, 62, 63, 64, 65, 66, 67, 68, 69, 70, 71, 72, 73, 74, 75, 76, 77, 78, 79, 80, 81, 82, 83, 84, 85, 86, 87, 88, 89, 90, 91, 92, 93, 94, 95, 96, 97, 98, 99, 100, 101, 102, 103, 104, 105, 106, 107, 108, 109, 110, 111, 112, 113, 114, 115, 116, 117, 118, 119, 120, 121, 122, 123, 124, 125, 126, 127, 128, 129, 130, 131, 132, 133, 134, 135, 136, 137, 138, 139, 140, 141, 142, 143, 144, 145, 146, 147, 148, 149, 150, 151, 152, 153, 154, 155, 156, 157, 158, 159, 160, 161, 162, 163, 164, 165, 166, 167, 168, 169, 170, 171, 172, 173, 174, 175, 176, 177, 178, 179, 180, 181, 182, 183, 184, 185, 186, 187, 188, 189, 190, 191, 192, 193, 194, 195, 196, 197, 198, 199, 200, 201, 202, 203, 204, 205, 206, 207, 208, 209, 210, 211, 212, 213, 214, 215, 216, 217, 218, 219, 220, 221, 222, 223, 224, 225, 226, 227, 228, 229, 230, 231, 232, 233, 234, 235, 236, 237, 238, 239, 240, 241, 242, 243, 244, 245, 246, 247, 248, 249, 250, 251, 252, 253, 254, 255, 256],
      "AcquisitionTime": ["202603.887500", "202605.887500", "202607.887500", "202609.887500", "202611.887500", "202613.887500", "202615.887500", "202617.887500", "202619.887500", "202621.887500", "202623.887500", "202625.887500", "202627.887500", "202629.887500", "202631.887500", "202633.887500", "202635.887500", "202637.887500", "202639.887500", "202641.887500", "202643.887500", "202645.887500", "202647.887500", "202649.887500", "202651.887500", "202653.887500", "202655.887500", "202657.887500", "202659.887500", "202701.887500", "202703.887500", "202705.887500", "202707.887500", "202709.887500", "202711.887500", "202713.887500", "202715.887500", "202717.887500", "202719.887500", "202721.887500", "202723.887500", "202725.887500", "202727.887500", "202729.887500", "202731.887500", "202733.887500", "202735.887500", "202737.887500", "202739.887500", "202741.887500", "202743.887500", "202745.887500", "202747.890000", "202749.890000", "202751.890000", "202753.890000", "202755.890000", "202757.890000", "202759.890000", "202801.890000", "202803.890000", "202805.890000", "202807.890000", "202809.890000", "202811.890000", "202813.890000", "202815.890000", "202817.890000", "202819.890000", "202821.890000", "202823.890000", "202825.890000", "202827.890000", "202829.890000", "202831.890000", "202833.890000", "202835.890000", "202837.890000", "202839.890000", "202841.890000", "202843.890000", "202845.890000", "202847.890000", "202849.890000", "202851.890000", "202853.890000", "202855.890000", "202857.890000", "202859.890000", "202901.890000", "202903.890000", "202905.890000", "202907.890000", "202909.890000", "202911.890000", "202913.890000", "202915.890000", "202917.890000", "202919.890000", "202921.890000", "202923.890000", "202925.890000", "202927.890000", "202929.890000", "202931.890000", "202933.890000", "202935.890000", "202937.890000", "202939.890000", "202941.890000", "202943.890000", "202945.890000", "202947.890000", "202949.890000", "202951.890000", "202953.890000", "202955.890000", "202957.890000", "202959.890000", "203001.890000", "203003.890000", "203005.890000", "203007.890000", "203009.890000", "203011.890000", "203013.890000", "203015.890000", "203017.890000", "203019.890000", "203021.890000", "203023.890000", "203025.890000", "203027.890000", "203029.890000", "203031.890000", "203033.890000", "203035.890000", "203037.890000", "203039.890000", "203041.890000", "203043.890000", "203045.890000", "203047.890000", "203049.890000", "203051.890000", "203053.890000", "203055.890000", "203057.890000", "203059.890000", "203101.890000", "203103.890000", "203105.890000", "203107.890000", "203109.890000", "203111.890000", "203113.890000", "203115.890000", "203117.890000", "203119.890000", "203121.890000", "203123.890000", "203125.890000", "203127.890000", "203129.890000", "203131.890000", "203133.890000", "203135.890000", "203137.890000", "203139.890000", "203141.890000", "203143.890000", "203145.890000", "203147.890000", "203149.890000", "203151.890000", "203153.890000", "203155.890000", "203157.890000", "203159.890000", "203201.890000", "203203.890000", "203205.890000", "203207.890000", "203209.890000", "203211.890000", "203213.890000", "203215.890000", "203217.890000", "203219.890000", "203221.890000", "203223.890000", "203225.890000", "203227.890000", "203229.890000", "203231.890000", "203233.890000", "203235.890000", "203237.890000", "203239.890000", "203241.890000", "203243.890000", "203245.890000", "203247.890000", "203249.890000", "203251.890000", "203253.890000", "203255.890000", "203257.890000", "203259.890000", "203301.890000", "203303.890000", "203305.890000", "203307.890000", "203309.890000", "203311.890000", "203313.890000", "203315.890000", "203317.890000", "203319.890000", "203321.890000", "203323.890000", "203325.890000", "203327.890000", "203329.890000", "203331.890000", "203333.890000", "203335.890000", "203337.890000", "203339.890000", "203341.890000", "203343.890000", "203345.890000", "203347.890000", "203349.890000", "203351.890000", "203353.890000", "203355.890000", "203357.890000", "203359.890000", "203401.890000", "203403.890000", "203405.890000", "203407.890000", "203409.890000", "203411.890000", "203413.890000", "203415.890000", "203417.890000", "203419.890000", "203421.890000", "203423.890000", "203425.890000", "203427.890000", "203429.890000", "203431.890000", "203433.890000"],
      "ContentTime": ["202659.530000", "202659.534000", "202659.537000", "202659.540000", "202659.543000", "202659.546000", "202659.549000", "202659.552000", "202659.555000", "202659.558000", "202659.561000", "202659.564000", "202659.567000", "202659.569000", "202659.572000", "202659.575000", "202659.578000", "202659.581000", "202659.583000", "202659.586000", "202659.589000", "202659.592000", "202659.595000", "202659.598000", "202659.606000", "202659.609000", "202659.612000", "202659.615000", "202739.524000", "202739.527000", "202739.530000", "202739.533000", "202739.536000", "202739.539000", "202739.542000", "202739.550000", "202739.553000", "202739.556000", "202739.559000", "202739.562000", "202739.565000", "202739.568000", "202739.570000", "202739.574000", "202739.577000", "202739.579000", "202739.582000", "202739.585000", "202819.524000", "202819.528000", "202819.530000", "202819.533000", "202819.536000", "202819.539000", "202819.542000", "202819.545000", "202819.548000", "202819.551000", "202819.555000", "202819.558000", "202819.561000", "202819.564000", "202819.567000", "202819.570000", "202819.572000", "202819.575000", "202819.578000", "202819.581000", "202859.524000", "202859.528000", "202859.531000", "202859.533000", "202859.536000", "202859.539000", "202859.542000", "202859.545000", "202859.548000", "202859.551000", "202859.554000", "202859.557000", "202859.560000", "202859.563000", "202859.566000", "202859.569000", "202859.572000", "202859.586000", "202859.588000", "202859.591000", "202919.524000", "202919.527000", "202919.530000", "202919.533000", "202919.536000", "202919.539000", "202919.542000", "202919.545000", "202919.547000", "202919.550000", "202959.524000", "202959.527000", "202959.530000", "202959.533000", "202959.536000", "202959.539000", "202959.542000", "202959.545000", "202959.548000", "202959.550000", "202959.553000", "202959.556000", "202959.559000", "202959.563000", "202959.565000", "202959.568000", "202959.571000", "202959.574000", "202959.577000", "202959.579000", "203039.523000", "203039.527000", "203039.530000", "203039.533000", "203039.536000", "203039.538000", "203039.541000", "203039.544000", "203039.547000", "203039.550000", "203039.553000", "203039.556000", "203039.559000", "203039.562000", "203039.565000", "203039.568000", "203039.571000", "203039.574000", "203039.577000", "203039.580000", "203119.524000", "203119.528000", "203119.531000", "203119.534000", "203119.537000", "203119.540000", "203119.543000", "203119.546000", "203119.548000", "203119.551000", "203119.554000", "203119.557000", "203119.560000", "203119.563000", "203119.567000", "203119.569000", "203119.572000", "203119.575000", "203119.578000", "203119.581000", "203159.523000", "203159.527000", "203159.530000", "203159.533000", "203159.536000", "203159.538000", "203159.541000", "203159.544000", "203159.547000", "203159.550000", "203159.553000", "203159.555000", "203159.558000", "203159.561000", "203159.564000", "203159.566000", "203159.570000", "203159.573000", "203159.576000", "203159.579000", "203239.523000", "203239.527000", "203239.530000", "203239.533000", "203239.536000", "203239.539000", "203239.542000", "203239.544000", "203239.547000", "203239.550000", "203239.553000", "203239.556000", "203239.559000", "203239.562000", "203239.565000", "203239.568000", "203239.571000", "203239.574000", "203239.577000", "203239.580000", "203319.523000", "203319.526000", "203319.529000", "203319.532000", "203319.535000", "203319.538000", "203319.541000", "203319.543000", "203319.546000", "203319.549000", "203319.552000", "203319.555000", "203319.558000", "203319.561000", "203319.563000", "203319.566000", "203319.569000", "203319.572000", "203319.576000", "203319.579000", "203359.523000", "203359.526000", "203359.529000", "203359.532000", "203359.550000", "203359.553000", "203359.556000", "203359.558000", "203359.561000", "203359.564000", "203359.567000", "203359.570000", "203359.573000", "203359.576000", "203359.579000", "203359.582000", "203359.585000", "203359.588000", "203359.591000", "203359.594000", "203434.251000", "203434.254000", "203434.257000", "203434.260000", "203434.263000", "203434.266000", "203434.268000", "203434.271000", "203434.274000", "203434.277000", "203434.280000", "203434.283000", "203434.293000", "203434.299000", "203434.303000", "203434.308000", "203434.311000", "203434.314000"],
      "InstanceCreationTime": ["202659.530000", "202659.534000", "202659.537000", "202659.540000", "202659.543000", "202659.546000", "202659.549000", "202659.552000", "202659.555000", "202659.558000", "202659.561000", "202659.564000", "202659.567000", "202659.569000", "202659.572000", "202659.575000", "202659.578000", "202659.581000", "202659.583000", "202659.586000", "202659.589000", "202659.592000", "202659.595000", "202659.598000", "202659.606000", "202659.609000", "202659.612000", "202659.615000", "202739.524000", "202739.527000", "202739.530000", "202739.533000", "202739.536000", "202739.539000", "202739.542000", "202739.550000", "202739.553000", "202739.556000", "202739.559000", "202739.562000", "202739.565000", "202739.568000", "202739.570000", "202739.574000", "202739.577000", "202739.579000", "202739.582000", "202739.585000", "202819.524000", "202819.528000", "202819.530000", "202819.533000", "202819.536000", "202819.539000", "202819.542000", "202819.545000", "202819.548000", "202819.551000", "202819.555000", "202819.558000", "202819.561000", "202819.564000", "202819.567000", "202819.570000", "202819.572000", "202819.575000", "202819.578000", "202819.581000", "202859.524000", "202859.528000", "202859.531000", "202859.533000", "202859.536000", "202859.539000", "202859.542000", "202859.545000", "202859.548000", "202859.551000", "202859.554000", "202859.557000", "202859.560000", "202859.563000", "202859.566000", "202859.569000", "202859.572000", "202859.586000", "202859.588000", "202859.591000", "202919.524000", "202919.527000", "202919.530000", "202919.533000", "202919.536000", "202919.539000", "202919.542000", "202919.545000", "202919.547000", "202919.550000", "202959.524000", "202959.527000", "202959.530000", "202959.533000", "202959.536000", "202959.539000", "202959.542000", "202959.545000", "202959.548000", "202959.550000", "202959.553000", "202959.556000", "202959.559000", "202959.563000", "202959.565000", "202959.568000", "202959.571000", "202959.574000", "202959.577000", "202959.579000", "203039.523000", "203039.527000", "203039.530000", "203039.533000", "203039.536000", "203039.538000", "203039.541000", "203039.544000", "203039.547000", "203039.550000", "203039.553000", "203039.556000", "203039.559000", "203039.562000", "203039.565000", "203039.568000", "203039.571000", "203039.574000", "203039.577000", "203039.580000", "203119.524000", "203119.528000", "203119.531000", "203119.534000", "203119.537000", "203119.540000", "203119.543000", "203119.546000", "203119.548000", "203119.551000", "203119.554000", "203119.557000", "203119.560000", "203119.563000", "203119.567000", "203119.569000", "203119.572000", "203119.575000", "203119.578000", "203119.581000", "203159.523000", "203159.527000", "203159.530000", "203159.533000", "203159.536000", "203159.538000", "203159.541000", "203159.544000", "203159.547000", "203159.550000", "203159.553000", "203159.555000", "203159.558000", "203159.561000", "203159.564000", "203159.566000", "203159.570000", "203159.573000", "203159.576000", "203159.579000", "203239.523000", "203239.527000", "203239.530000", "203239.533000", "203239.536000", "203239.539000", "203239.542000", "203239.544000", "203239.547000", "203239.550000", "203239.553000", "203239.556000", "203239.559000", "203239.562000", "203239.565000", "203239.568000", "203239.571000", "203239.574000", "203239.577000", "203239.580000", "203319.523000", "203319.526000", "203319.529000", "203319.532000", "203319.535000", "203319.538000", "203319.541000", "203319.543000", "203319.546000", "203319.549000", "203319.552000", "203319.555000", "203319.558000", "203319.561000", "203319.563000", "203319.566000", "203319.569000", "203319.572000", "203319.576000", "203319.579000", "203359.523000", "203359.526000", "203359.529000", "203359.532000", "203359.550000", "203359.553000", "203359.556000", "203359.558000", "203359.561000", "203359.564000", "203359.567000", "203359.570000", "203359.573000", "203359.576000", "203359.579000", "203359.582000", "203359.585000", "203359.588000", "203359.591000", "203359.594000", "203434.251000", "203434.254000", "203434.257000", "203434.260000", "203434.263000", "203434.266000", "203434.268000", "203434.271000", "203434.274000", "203434.277000", "203434.280000", "203434.283000", "203434.293000", "203434.299000", "203434.303000", "203434.308000", "203434.311000", "203434.314000"],
      "InstanceNumber": [1, 2, 3, 4, 5, 6, 7, 8, 9, 10, 11, 12, 13, 14, 15, 16, 17, 18, 19, 20, 21, 22, 23, 24, 25, 26, 27, 28, 29, 30, 31, 32, 33, 34, 35, 36, 37, 38, 39, 40, 41, 42, 43, 44, 45, 46, 47, 48, 49, 50, 51, 52, 53, 54, 55, 56, 57, 58, 59, 60, 61, 62, 63, 64, 65, 66, 67, 68, 69, 70, 71, 72, 73, 74, 75, 76, 77, 78, 79, 80, 81, 82, 83, 84, 85, 86, 87, 88, 89, 90, 91, 92, 93, 94, 95, 96, 97, 98, 99, 100, 101, 102, 103, 104, 105, 106, 107, 108, 109, 110, 111, 112, 113, 114, 115, 116, 117, 118, 119, 120, 121, 122, 123, 124, 125, 126, 127, 128, 129, 130, 131, 132, 133, 134, 135, 136, 137, 138, 139, 140, 141, 142, 143, 144, 145, 146, 147, 148, 149, 150, 151, 152, 153, 154, 155, 156, 157, 158, 159, 160, 161, 162, 163, 164, 165, 166, 167, 168, 169, 170, 171, 172, 173, 174, 175, 176, 177, 178, 179, 180, 181, 182, 183, 184, 185, 186, 187, 188, 189, 190, 191, 192, 193, 194, 195, 196, 197, 198, 199, 200, 201, 202, 203, 204, 205, 206, 207, 208, 209, 210, 211, 212, 213, 214, 215, 216, 217, 218, 219, 220, 221, 222, 223, 224, 225, 226, 227, 228, 229, 230, 231, 232, 233, 234, 235, 236, 237, 238, 239, 240, 241, 242, 243, 244, 245, 246, 247, 248, 249, 250, 251, 252, 253, 254, 255, 256],
      "LargestImagePixelValue": [1097, 1303, 1058, 1157, 1187, 1056, 1058, 1128, 1126, 1100, 1073, 1074, 1066, 1061, 1076, 1213, 1092, 1062, 1343, 1084, 1235, 1086, 1074, 1066, 1091, 1118, 1059, 1061, 1205, 1070, 1068, 1073, 1329, 1084, 1078, 1065, 1076, 1295, 1062, 1066, 1157, 1067, 1205, 1075, 1061, 1067, 1237, 1077, 1067, 1104, 1074, 1277, 1071, 1079, 1066, 1060, 1148, 1124, 1079, 1198, 1228, 1076, 1067, 1065, 1063, 1201, 1060, 1068, 1066, 1068, 1132, 1221, 1084, 1064, 1077, 1060, 1062, 1221, 1201, 1071, 1053, 1057, 1259, 1133, 1062, 1040, 1070, 1047, 1064, 1060, 1059, 1061, 1047, 1057, 1148, 1048, 1050, 1101, 1051, 1053, 1094, 1164, 1060, 1144, 1066, 1131, 1177, 1066, 1052, 1070, 1050, 1079, 1058, 1062, 1035, 1050, 1245, 1062, 1064, 1039, 1092, 1087, 1083, 1117, 1087, 1045, 1077, 1037, 1059, 1136, 1177, 1058, 1106, 1085, 1050, 1043, 1051, 1059, 1078, 1098, 1235, 1078, 1025, 1038, 1027, 1113, 1032, 1231, 1024, 1149, 1064, 1029, 1037, 1169, 1150, 1072, 1038, 1036, 1042, 1028, 1023, 1233, 1239, 1092, 1036, 1087, 1029, 1063, 1224, 1167, 1035, 1034, 1099, 1030, 1055, 1021, 1056, 1281, 1206, 1049, 1034, 1024, 1035, 1218, 1063, 1032, 1021, 1030, 1141, 1249, 1022, 1080, 1028, 1040, 1130, 1180, 1084, 1031, 1031, 1016, 1020, 1039, 1038, 1036, 1217, 1066, 1027, 1023, 1030, 1207, 1088, 1031, 1016, 1218, 1017, 1067, 1074, 1021, 1057, 1029, 1075, 1119, 1027, 1020, 1257, 1035, 1132, 1027, 1031, 1021, 1221, 1022, 1018, 1025, 1036, 1136, 1121, 1019, 1026, 1027, 1438, 1070, 1097, 1025, 1020, 1083, 1024, 1023, 1147, 1032, 1069, 1105, 1063, 1047, 1078, 1032],
      "WindowCenter": [486.0, 486.0, 483.0, 485.0, 483.0, 482.0, 484.0, 485.0, 484.0, 486.0, 483.0, 483.0, 483.0, 484.0, 485.0, 487.0, 485.0, 485.0, 487.0, 483.0, 486.0, 483.0, 484.0, 484.0, 486.0, 485.0, 482.0, 482.0, 485.0, 484.0, 484.0, 485.0, 487.0, 483.0, 483.0, 483.0, 484.0, 486.0, 484.0, 484.0, 485.0, 484.0, 486.0, 484.0, 483.0, 484.0, 486.0, 484.0, 484.0, 485.0, 484.0, 487.0, 484.0, 484.0, 484.0, 485.0, 485.0, 484.0, 484.0, 487.0, 486.0, 484.0, 484.0, 483.0, 483.0, 485.0, 484.0, 485.0, 485.0, 485.0, 486.0, 487.0, 485.0, 486.0, 486.0, 485.0, 485.0, 487.0, 487.0, 485.0, 485.0, 485.0, 487.0, 486.0, 485.0, 486.0, 486.0, 486.0, 485.0, 484.0, 485.0, 485.0, 484.0, 485.0, 486.0, 485.0, 485.0, 486.0, 484.0, 486.0, 486.0, 486.0, 485.0, 488.0, 486.0, 486.0, 486.0, 485.0, 485.0, 485.0, 486.0, 486.0, 485.0, 485.0, 485.0, 485.0, 487.0, 485.0, 485.0, 485.0, 486.0, 487.0, 486.0, 486.0, 484.0, 484.0, 485.0, 484.0, 485.0, 485.0, 487.0, 485.0, 486.0, 485.0, 484.0, 484.0, 485.0, 484.0, 486.0, 485.0, 486.0, 483.0, 483.0, 484.0, 484.0, 487.0, 485.0, 487.0, 484.0, 487.0, 485.0, 484.0, 484.0, 486.0, 486.0, 484.0, 484.0, 483.0, 484.0, 483.0, 485.0, 487.0, 485.0, 484.0, 483.0, 484.0, 484.0, 484.0, 487.0, 485.0, 482.0, 482.0, 483.0, 483.0, 483.0, 483.0, 484.0, 486.0, 484.0, 482.0, 483.0, 483.0, 483.0, 484.0, 483.0, 483.0, 483.0, 484.0, 485.0, 485.0, 483.0, 485.0, 484.0, 485.0, 487.0, 486.0, 485.0, 484.0, 483.0, 483.0, 484.0, 485.0, 485.0, 485.0, 487.0, 484.0, 482.0, 483.0, 483.0, 487.0, 485.0, 483.0, 482.0, 483.0, 481.0, 481.0, 482.0, 482.0, 484.0, 482.0, 484.0, 484.0, 483.0, 483.0, 485.0, 482.0, 484.0, 482.0, 483.0, 482.0, 483.0, 481.0, 482.0, 483.0, 484.0, 485.0, 485.0, 481.0, 483.0, 485.0, 489.0, 483.0, 484.0, 483.0, 483.0, 484.0, 482.0, 484.0, 486.0, 483.0, 483.0, 485.0, 484.0, 484.0, 485.0, 483.0],
      "WindowWidth": [1018.0, 1016.0, 1010.0, 1015.0, 1011.0, 1009.0, 1013.0, 1015.0, 1013.0, 1016.0, 1011.0, 1010.0, 1011.0, 1012.0, 1015.0, 1018.0, 1013.0, 1013.0, 1017.0, 1011.0, 1016.0, 1011.0, 1011.0, 1012.0, 1016.0, 1015.0, 1009.0, 1009.0, 1014.0, 1013.0, 1012.0, 1014.0, 1018.0, 1011.0, 1010.0, 1011.0, 1012.0, 1016.0, 1012.0, 1011.0, 1014.0, 1013.0, 1016.0, 1013.0, 1011.0, 1012.0, 1017.0, 1013.0, 1012.0, 1015.0, 1013.0, 1017.0, 1012.0, 1011.0, 1012.0, 1013.0, 1015.0, 1012.0, 1012.0, 1018.0, 1015.0, 1012.0, 1013.0, 1011.0, 1011.0, 1014.0, 1012.0, 1014.0, 1015.0, 1014.0, 1016.0, 1017.0, 1014.0, 1017.0, 1016.0, 1015.0, 1015.0, 1018.0, 1017.0, 1014.0, 1014.0, 1014.0, 1018.0, 1016.0, 1014.0, 1016.0, 1017.0, 1017.0, 1015.0, 1013.0, 1015.0, 1014.0, 1014.0, 1014.0, 1015.0, 1014.0, 1015.0, 1017.0, 1014.0, 1016.0, 1016.0, 1017.0, 1014.0, 1019.0, 1017.0, 1016.0, 1016.0, 1013.0, 1015.0, 1014.0, 1016.0, 1016.0, 1014.0, 1015.0, 1015.0, 1015.0, 1019.0, 1014.0, 1014.0, 1015.0, 1016.0, 1018.0, 1017.0, 1016.0, 1014.0, 1013.0, 1015.0, 1013.0, 1014.0, 1015.0, 1018.0, 1015.0, 1017.0, 1015.0, 1013.0, 1013.0, 1014.0, 1014.0, 1016.0, 1014.0, 1016.0, 1011.0, 1011.0, 1013.0, 1013.0, 1017.0, 1014.0, 1018.0, 1012.0, 1017.0, 1015.0, 1014.0, 1014.0, 1015.0, 1016.0, 1012.0, 1012.0, 1011.0, 1012.0, 1011.0, 1014.0, 1017.0, 1013.0, 1012.0, 1010.0, 1013.0, 1013.0, 1013.0, 1018.0, 1014.0, 1008.0, 1008.0, 1011.0, 1010.0, 1011.0, 1012.0, 1013.0, 1016.0, 1011.0, 1010.0, 1010.0, 1010.0, 1011.0, 1013.0, 1012.0, 1012.0, 1012.0, 1012.0, 1015.0, 1015.0, 1012.0, 1014.0, 1014.0, 1016.0, 1019.0, 1017.0, 1015.0, 1013.0, 1011.0, 1010.0, 1014.0, 1014.0, 1014.0, 1014.0, 1019.0, 1012.0, 1010.0, 1010.0, 1012.0, 1018.0, 1015.0, 1010.0, 1009.0, 1011.0, 1006.0, 1006.0, 1008.0, 1009.0, 1013.0, 1010.0, 1012.0, 1013.0, 1011.0, 1011.0, 1013.0, 1009.0, 1012.0, 1009.0, 1011.0, 1010.0, 1011.0, 1007.0, 1009.0, 1010.0, 1012.0, 1015.0, 1014.0, 1008.0, 1010.0, 1016.0, 1021.0, 1011.0, 1013.0, 1010.0, 1011.0, 1012.0, 1009.0, 1012.0, 1016.0, 1011.0, 1011.0, 1015.0, 1012.0, 1012.0, 1015.0, 1012.0]
    },
    "slices": {}
  }
}