{
  "AcquisitionMatrixPE": 64,
  "AcquisitionNumber": 2,
  "AcquisitionTime": "19:18:14.030000",
  "BandwidthPerPixelPhaseEncode": 40.064,
  "BaseResolution": 64,
  "BodyPartExamined": "BRAIN",
  "ConsistencyInfo": "N4_VD13D_LATEST_20130810",
  "ConversionSoftware": "dcm2niix",
  "ConversionSoftwareVersion": "v1.0.20191031",
  "DerivedVendorReportedEchoSpacing": 0.000780002,
  "DeviceSerialNumber": "67007",
  "DwellTime": 5.3e-06,
  "EchoTime": 0.03,
  "EchoTrainLength": 31,
  "EffectiveEchoSpacing": 0.000390001,
  "FlipAngle": 75,
  "ImageOrientationPatientDICOM": [0.999015, 0.0421427, 0.013895, -0.0401246, 0.991632, -0.122704],
  "ImageType": [
    "ORIGINAL",
    "PRIMARY",
    "M",
    "ND",
    "NORM",
    "MOSAIC"
],
  "ImagingFrequency": 123.211,
  "InPlanePhaseEncodingDirectionDICOM": "ROW",
  "InstitutionAddress": "Perth_Drive_100_London_Ontario_CA_N6A_5K8",
  "InstitutionName": "Robarts_Research_Institute",
  "InstitutionalDepartmentName": "CFMM",
  "MRAcquisitionType": "2D",
  "MagneticFieldStrength": 3,
  "Manufacturer": "Siemens",
  "ManufacturersModelName": "Prisma_fit",
  "Modality": "MR",
  "ParallelReductionFactorInPlane": 2,
  "PartialFourier": 1,
  "PatientPosition": "HFS",
  "PercentPhaseFOV": 100,
  "PhaseEncodingDirection": "i",
  "PhaseEncodingSteps": 63,
  "PhaseResolution": 1,
  "PixelBandwidth": 1475,
  "ProcedureStepDescription": "Owen_Naci",
  "ProtocolName": "Resting_State_light_sed",
  "PulseSequenceDetails": "%SiemensSeq%_ep2d_bold",
  "ReceiveCoilActiveElements": "HEA;HEP",
  "ReceiveCoilName": "Head_32",
  "ReconMatrixPE": 64,
  "RefLinesPE": 24,
  "RepetitionTime": 2,
  "SAR": 0.12892,
  "ScanOptions": "FS",
  "ScanningSequence": "EP",
  "SequenceName": "_epfid2d1_64",
  "SequenceVariant": "SK",
  "SeriesDescription": "Resting_State_light_sed",
  "SeriesNumber": 10,
  "ShimSetting": [5280, -6156, -3661, 356, 40, 51, 23, 32],
  "SliceThickness": 3,
  "SliceTiming": [1.92, 1.86, 1.8, 1.74, 1.68, 1.62, 1.56, 1.5, 1.44, 1.38, 1.32, 1.26, 1.2, 1.14, 1.08, 1.02, 0.96, 0.9, 0.84, 0.78, 0.72, 0.66, 0.6, 0.54, 0.48, 0.42, 0.36, 0.3, 0.24, 0.18, 0.12, 0.06, 0],
  "SoftwareVersions": "syngo_MR_D13D",
  "SpacingBetweenSlices": 3.75,
  "StationName": "AWP67007",
  "TaskName": "rest",
  "TotalReadoutTime": 0.0245701,
  "TxRefAmp": 288.366,
  "dcmmeta_affine": [
    [-2.9970450401306152, -0.12037375569343567, 0.07106153666973114, 95.74740600585938],
    [-0.1264280378818512, 2.974895715713501, -0.4575951397418976, -68.32610321044922],
    [0.04168485477566719, 0.3681113123893738, 3.7212977409362793, 21.92043685913086],
    [0.0, 0.0, 0.0, 1.0]
],
  "dcmmeta_reorient_transform": [
    [0.0, -1.0, 0.0, 63.0],
    [1.0, 0.0, 0.0, 0.0],
    [0.0, 0.0, 1.0, 0.0],
    [0.0, 0.0, 0.0, 1.0]
],
  "dcmmeta_shape": [64, 64, 33, 144],
  "dcmmeta_slice_dim": 2,
  "dcmmeta_version": 0.6,
  "global": {
    "const": {
      "AcquisitionMatrix": [0, 64, 64, 0],
      "AngioFlag": "N",
      "BitsAllocated": 16,
      "BitsStored": 12,
      "BodyPartExamined": "BRAIN",
      "Columns": 384,
      "EchoNumbers": 1,
      "EchoTime": 30.0,
      "EchoTrainLength": 31,
      "FlipAngle": 75.0,
      "HighBit": 11,
      "ImageOrientationPatient": [0.99901497733694, 0.04214267871957, 0.01389495184673, -0.0401245848044, 0.99163188903489, -0.1227037666226],
      "ImagePositionPatient": [-548.43124436411, -615.30411326106, 97.339679312838],
      "ImageType": [
        "ORIGINAL",
        "PRIMARY",
        "M",
        "ND",
        "NORM",
        "MOSAIC"
],
      "ImagedNucleus": "1H",
      "ImagingFrequency": 123.210984,
      "InPlanePhaseEncodingDirection": "ROW",
      "MRAcquisitionType": "2D",
      "MagneticFieldStrength": 3.0,
      "Manufacturer": "SIEMENS",
      "ManufacturerModelName": "Prisma_fit",
      "Modality": "MR",
      "NumberOfAverages": 1.0,
      "NumberOfPhaseEncodingSteps": 63,
      "PercentPhaseFieldOfView": 100.0,
      "PercentSampling": 100.0,
      "PerformedProcedureStepStartTime": "180215.790000",
      "PhotometricInterpretation": "MONOCHROME2",
      "PixelBandwidth": 1475.0,
      "PixelRepresentation": 0,
      "PixelSpacing": [3.0, 3.0],
      "ProtocolName": "Resting State_light sed",
      "RepetitionTime": 2000.0,
      "Rows": 384,
      "SAR": 0.12891953387651,
      "SamplesPerPixel": 1,
      "ScanOptions": "FS",
      "ScanningSequence": "EP",
      "SequenceName": "*epfid2d1_64",
      "SequenceVariant": "SK",
      "SeriesDescription": "Resting State_light sed",
      "SeriesNumber": 10,
      "SeriesTime": "191859.525000",
      "SliceLocation": 31.90456591705,
      "SliceThickness": 3.0,
      "SmallestImagePixelValue": 0,
      "SoftwareVersions": "syngo MR D13D",
      "SpacingBetweenSlices": 3.7499999908182,
      "SpecificCharacterSet": "ISO_IR 100",
      "StudyID": "1",
      "StudyTime": "180215.680000",
      "TimeOfLastCalibration": ["123723.000000", "123723.000000"],
      "TransmitCoilName": "Body",
      "VariableFlipAngleFlag": "N",
      "WindowCenterWidthExplanation": "Algo1",
      "dBdt": 0.0},
    "slices": {}
  },
  "time": {
    "samples": {
      "AcquisitionNumber": [2, 5, 7, 8, 10, 11, 12, 13, 16, 17, 19, 21, 23, 24, 27, 28, 30, 32, 34, 36, 38, 40, 43, 44, 45, 46, 48, 49, 50, 51, 54, 56, 57, 58, 62, 65, 66, 67, 68, 71, 74, 76, 77, 79, 80, 81, 82, 83, 84, 87, 88, 90, 91, 93, 96, 97, 98, 99, 100, 101, 105, 108, 109, 111, 113, 114, 115, 118, 119, 122, 124, 125, 126, 129, 131, 132, 133, 135, 137, 138, 139, 140, 141, 142, 143, 148, 149, 150, 151, 152, 155, 157, 159, 160, 165, 167, 169, 170, 171, 174, 176, 177, 178, 181, 182, 185, 186, 189, 190, 192, 193, 194, 195, 197, 199, 200, 201, 202, 204, 206, 207, 209, 210, 214, 216, 217, 219, 222, 223, 224, 225, 227, 229, 230, 233, 237, 240, 241, 244, 247, 248, 250, 251, 253],
      "AcquisitionTime": ["191814.030000", "191820.030000", "191824.030000", "191826.030000", "191830.030000", "191832.030000", "191834.030000", "191836.030000", "191842.030000", "191844.030000", "191848.030000", "191852.030000", "191856.030000", "191858.030000", "191904.030000", "191906.030000", "191910.030000", "191914.030000", "191918.030000", "191922.032500", "191926.032500", "191930.032500", "191936.032500", "191938.032500", "191940.032500", "191942.032500", "191946.032500", "191948.032500", "191950.032500", "191952.032500", "191958.032500", "192002.032500", "192004.032500", "192006.032500", "192014.032500", "192020.032500", "192022.032500", "192024.032500", "192026.032500", "192032.032500", "192038.032500", "192042.032500", "192044.032500", "192048.032500", "192050.032500", "192052.032500", "192054.032500", "192056.032500", "192058.032500", "192104.032500", "192106.032500", "192110.032500", "192112.032500", "192116.032500", "192122.032500", "192124.032500", "192126.032500", "192128.032500", "192130.032500", "192132.032500", "192140.032500", "192146.032500", "192148.032500", "192152.032500", "192156.032500", "192158.032500", "192200.032500", "192206.032500", "192208.032500", "192214.032500", "192218.032500", "192220.032500", "192222.032500", "192228.032500", "192232.032500", "192234.032500", "192236.032500", "192240.032500", "192244.032500", "192246.032500", "192248.032500", "192250.032500", "192252.032500", "192254.032500", "192256.032500", "192306.032500", "192308.032500", "192310.032500", "192312.032500", "192314.032500", "192320.032500", "192324.032500", "192328.032500", "192330.032500", "192340.032500", "192344.032500", "192348.032500", "192350.032500", "192352.032500", "192358.032500", "192402.032500", "192404.032500", "192406.032500", "192412.032500", "192414.032500", "192420.032500", "192422.032500", "192428.032500", "192430.032500", "192434.032500", "192436.032500", "192438.032500", "192440.032500", "192444.032500", "192448.032500", "192450.032500", "192452.032500", "192454.032500", "192458.032500", "192502.032500", "192504.032500", "192508.032500", "192510.032500", "192518.032500", "192522.032500", "192524.032500", "192528.032500", "192534.032500", "192536.032500", "192538.032500", "192540.032500", "192544.032500", "192548.032500", "192550.032500", "192556.032500", "192604.032500", "192610.032500", "192612.032500", "192618.032500", "192624.032500", "192626.032500", "192630.032500", "192632.032500", "192636.032500"],
      "ContentTime": ["191859.534000", "191859.543000", "191859.549000", "191859.553000", "191859.559000", "191859.562000", "191859.565000", "191859.568000", "191859.577000", "191859.580000", "191859.586000", "191859.592000", "191859.601000", "191859.604000", "191919.532000", "191919.535000", "191919.541000", "191919.547000", "191919.553000", "191959.526000", "191959.535000", "191959.542000", "191959.551000", "191959.554000", "191959.557000", "191959.560000", "191959.566000", "191959.569000", "191959.573000", "191959.575000", "191959.585000", "192039.526000", "192039.529000", "192039.532000", "192039.544000", "192039.553000", "192039.556000", "192039.559000", "192039.562000", "192039.571000", "192039.580000", "192119.525000", "192119.528000", "192119.534000", "192119.539000", "192119.542000", "192119.545000", "192119.548000", "192119.551000", "192119.560000", "192119.563000", "192119.569000", "192119.572000", "192119.578000", "192159.527000", "192159.530000", "192159.533000", "192159.536000", "192159.539000", "192159.542000", "192159.556000", "192159.566000", "192159.569000", "192159.575000", "192159.581000", "192159.584000", "192239.522000", "192239.532000", "192239.535000", "192239.543000", "192239.550000", "192239.553000", "192239.556000", "192239.565000", "192239.571000", "192239.574000", "192239.577000", "192319.523000", "192319.529000", "192319.532000", "192319.535000", "192319.538000", "192319.541000", "192319.544000", "192319.547000", "192319.563000", "192319.566000", "192319.569000", "192319.572000", "192319.575000", "192359.523000", "192359.531000", "192359.537000", "192359.540000", "192359.555000", "192359.561000", "192359.567000", "192359.570000", "192359.574000", "192359.583000", "192439.527000", "192439.534000", "192439.537000", "192439.546000", "192439.549000", "192439.559000", "192439.562000", "192439.572000", "192439.575000", "192439.581000", "192439.584000", "192439.588000", "192519.524000", "192519.530000", "192519.535000", "192519.538000", "192519.541000", "192519.544000", "192519.549000", "192519.555000", "192519.558000", "192519.564000", "192519.567000", "192519.578000", "192559.527000", "192559.529000", "192559.535000", "192559.544000", "192559.546000", "192559.549000", "192559.552000", "192559.558000", "192559.563000", "192559.566000", "192559.574000", "192639.530000", "192639.539000", "192639.542000", "192639.551000", "192639.571000", "192639.575000", "192639.580000", "192639.583000", "192639.589000"],
      "InstanceCreationTime": ["191859.534000", "191859.543000", "191859.549000", "191859.553000", "191859.559000", "191859.562000", "191859.565000", "191859.568000", "191859.577000", "191859.580000", "191859.586000", "191859.592000", "191859.601000", "191859.604000", "191919.532000", "191919.535000", "191919.541000", "191919.547000", "191919.553000", "191959.526000", "191959.535000", "191959.542000", "191959.551000", "191959.554000", "191959.557000", "191959.560000", "191959.566000", "191959.569000", "191959.573000", "191959.575000", "191959.585000", "192039.526000", "192039.529000", "192039.532000", "192039.544000", "192039.553000", "192039.556000", "192039.559000", "192039.562000", "192039.571000", "192039.580000", "192119.525000", "192119.528000", "192119.534000", "192119.539000", "192119.542000", "192119.545000", "192119.548000", "192119.551000", "192119.560000", "192119.563000", "192119.569000", "192119.572000", "192119.578000", "192159.527000", "192159.530000", "192159.533000", "192159.536000", "192159.539000", "192159.542000", "192159.556000", "192159.566000", "192159.569000", "192159.575000", "192159.581000", "192159.584000", "192239.522000", "192239.532000", "192239.535000", "192239.543000", "192239.550000", "192239.553000", "192239.556000", "192239.565000", "192239.571000", "192239.574000", "192239.577000", "192319.523000", "192319.529000", "192319.532000", "192319.535000", "192319.538000", "192319.541000", "192319.544000", "192319.547000", "192319.563000", "192319.566000", "192319.569000", "192319.572000", "192319.575000", "192359.523000", "192359.531000", "192359.537000", "192359.540000", "192359.555000", "192359.561000", "192359.567000", "192359.570000", "192359.574000", "192359.583000", "192439.527000", "192439.534000", "192439.537000", "192439.546000", "192439.549000", "192439.559000", "192439.562000", "192439.572000", "192439.575000", "192439.581000", "192439.584000", "192439.588000", "192519.524000", "192519.530000", "192519.535000", "192519.538000", "192519.541000", "192519.544000", "192519.549000", "192519.555000", "192519.558000", "192519.564000", "192519.567000", "192519.578000", "192559.527000", "192559.529000", "192559.535000", "192559.544000", "192559.546000", "192559.549000", "192559.552000", "192559.558000", "192559.563000", "192559.566000", "192559.574000", "192639.530000", "192639.539000", "192639.542000", "192639.551000", "192639.571000", "192639.575000", "192639.580000", "192639.583000", "192639.589000"],
      "InstanceNumber": [2, 5, 7, 8, 10, 11, 12, 13, 16, 17, 19, 21, 23, 24, 27, 28, 30, 32, 34, 36, 38, 40, 43, 44, 45, 46, 48, 49, 50, 51, 54, 56, 57, 58, 62, 65, 66, 67, 68, 71, 74, 76, 77, 79, 80, 81, 82, 83, 84, 87, 88, 90, 91, 93, 96, 97, 98, 99, 100, 101, 105, 108, 109, 111, 113, 114, 115, 118, 119, 122, 124, 125, 126, 129, 131, 132, 133, 135, 137, 138, 139, 140, 141, 142, 143, 148, 149, 150, 151, 152, 155, 157, 159, 160, 165, 167, 169, 170, 171, 174, 176, 177, 178, 181, 182, 185, 186, 189, 190, 192, 193, 194, 195, 197, 199, 200, 201, 202, 204, 206, 207, 209, 210, 214, 216, 217, 219, 222, 223, 224, 225, 227, 229, 230, 233, 237, 240, 241, 244, 247, 248, 250, 251, 253],
      "LargestImagePixelValue": [1023, 1218, 1029, 1015, 1095, 1249, 1211, 1048, 1229, 1177, 1039, 1265, 1017, 1023, 1150, 1036, 1050, 1172, 1159, 1013, 1022, 1232, 1003, 1013, 1073, 1100, 1137, 1191, 997, 1018, 1088, 1205, 1138, 1012, 1183, 1019, 1038, 1224, 1247, 1025, 1151, 1109, 1138, 1017, 1022, 1135, 1106, 1243, 1194, 1020, 1035, 1155, 1176, 1009, 1081, 1035, 1152, 1008, 1027, 1085, 1025, 1216, 1180, 1008, 1040, 1036, 1171, 1015, 1041, 1192, 1159, 1008, 1014, 1087, 1012, 1096, 1066, 1260, 1157, 1004, 1077, 1210, 1114, 1113, 1071, 1134, 1243, 1167, 1192, 1006, 1014, 1049, 1224, 1189, 1055, 1171, 1074, 1118, 1146, 1071, 1033, 1190, 1247, 1119, 999, 1094, 1009, 1134, 1125, 1169, 1138, 1023, 1012, 1019, 1136, 1037, 1111, 1171, 1007, 1004, 1149, 1240, 1015, 1037, 1042, 1206, 1026, 1158, 1142, 1237, 1177, 1021, 1019, 1122, 1007, 1029, 1027, 1001, 1281, 1007, 1094, 1016, 1157, 1001],
      "WindowCenter": [487.0, 487.0, 486.0, 485.0, 486.0, 487.0, 487.0, 485.0, 487.0, 487.0, 485.0, 487.0, 485.0, 485.0, 485.0, 485.0, 485.0, 486.0, 485.0, 486.0, 483.0, 486.0, 483.0, 484.0, 484.0, 484.0, 485.0, 485.0, 484.0, 484.0, 485.0, 487.0, 485.0, 486.0, 488.0, 485.0, 485.0, 487.0, 488.0, 485.0, 485.0, 484.0, 486.0, 485.0, 485.0, 486.0, 486.0, 487.0, 486.0, 483.0, 485.0, 487.0, 485.0, 484.0, 485.0, 485.0, 486.0, 485.0, 486.0, 487.0, 485.0, 486.0, 486.0, 485.0, 486.0, 484.0, 487.0, 485.0, 485.0, 487.0, 487.0, 485.0, 486.0, 486.0, 486.0, 487.0, 487.0, 487.0, 487.0, 485.0, 487.0, 487.0, 486.0, 486.0, 485.0, 487.0, 488.0, 487.0, 487.0, 485.0, 486.0, 485.0, 488.0, 487.0, 485.0, 486.0, 486.0, 487.0, 487.0, 487.0, 485.0, 487.0, 488.0, 486.0, 485.0, 486.0, 485.0, 487.0, 488.0, 488.0, 487.0, 486.0, 485.0, 487.0, 487.0, 486.0, 486.0, 487.0, 486.0, 486.0, 487.0, 488.0, 485.0, 487.0, 486.0, 487.0, 485.0, 487.0, 486.0, 487.0, 487.0, 485.0, 487.0, 489.0, 486.0, 486.0, 487.0, 486.0, 488.0, 485.0, 486.0, 483.0, 485.0, 481.0],
      "WindowWidth": [1019.0, 1018.0, 1018.0, 1016.0, 1017.0, 1019.0, 1018.0, 1015.0, 1019.0, 1018.0, 1015.0, 1019.0, 1015.0, 1015.0, 1015.0, 1014.0, 1014.0, 1016.0, 1015.0, 1017.0, 1012.0, 1016.0, 1012.0, 1012.0, 1013.0, 1013.0, 1013.0, 1014.0, 1012.0, 1014.0, 1015.0, 1019.0, 1016.0, 1017.0, 1020.0, 1015.0, 1016.0, 1019.0, 1019.0, 1014.0, 1014.0, 1014.0, 1016.0, 1016.0, 1015.0, 1017.0, 1016.0, 1018.0, 1016.0, 1012.0, 1014.0, 1017.0, 1015.0, 1013.0, 1015.0, 1015.0, 1017.0, 1016.0, 1018.0, 1019.0, 1015.0, 1017.0, 1017.0, 1016.0, 1016.0, 1014.0, 1018.0, 1015.0, 1015.0, 1018.0, 1019.0, 1015.0, 1017.0, 1017.0, 1017.0, 1018.0, 1018.0, 1019.0, 1018.0, 1015.0, 1018.0, 1018.0, 1017.0, 1016.0, 1015.0, 1019.0, 1021.0, 1019.0, 1019.0, 1015.0, 1017.0, 1016.0, 1019.0, 1018.0, 1014.0, 1017.0, 1017.0, 1018.0, 1018.0, 1019.0, 1014.0, 1019.0, 1021.0, 1017.0, 1014.0, 1017.0, 1016.0, 1019.0, 1021.0, 1020.0, 1018.0, 1016.0, 1016.0, 1020.0, 1019.0, 1017.0, 1017.0, 1019.0, 1017.0, 1016.0, 1018.0, 1020.0, 1016.0, 1019.0, 1017.0, 1019.0, 1015.0, 1019.0, 1016.0, 1018.0, 1018.0, 1015.0, 1020.0, 1022.0, 1017.0, 1018.0, 1018.0, 1018.0, 1019.0, 1016.0, 1017.0, 1012.0, 1014.0, 1008.0]
    },
    "slices": {}
  }
}