{
  "AcquisitionMatrixPE": 64,
  "AcquisitionNumber": 1,
  "AcquisitionTime": "19:12:11.882500",
  "BandwidthPerPixelPhaseEncode": 40.064,
  "BaseResolution": 64,
  "BodyPartExamined": "BRAIN",
  "ConsistencyInfo": "N4_VD13D_LATEST_20130810",
  "ConversionSoftware": "dcm2niix",
  "ConversionSoftwareVersion": "v1.0.20191031",
  "DerivedVendorReportedEchoSpacing": 0.000780002,
  "DeviceSerialNumber": "67007",
  "DwellTime": 5.3e-06,
  "EchoTime": 0.03,
  "EchoTrainLength": 31,
  "EffectiveEchoSpacing": 0.000390001,
  "FlipAngle": 75,
  "ImageOrientationPatientDICOM": [0.999015, 0.0421427, 0.013895, -0.0401246, 0.991632, -0.122704],
  "ImageType": [
    "ORIGINAL",
    "PRIMARY",
    "M",
    "ND",
    "NORM",
    "MOSAIC"
],
  "ImagingFrequency": 123.211,
  "InPlanePhaseEncodingDirectionDICOM": "ROW",
  "InstitutionAddress": "Perth_Drive_100_London_Ontario_CA_N6A_5K8",
  "InstitutionName": "Robarts_Research_Institute",
  "InstitutionalDepartmentName": "CFMM",
  "MRAcquisitionType": "2D",
  "MagneticFieldStrength": 3,
  "Manufacturer": "Siemens",
  "ManufacturersModelName": "Prisma_fit",
  "Modality": "MR",
  "ParallelReductionFactorInPlane": 2,
  "PartialFourier": 1,
  "PatientPosition": "HFS",
  "PercentPhaseFOV": 100,
  "PhaseEncodingDirection": "i",
  "PhaseEncodingSteps": 63,
  "PhaseResolution": 1,
  "PixelBandwidth": 1475,
  "ProcedureStepDescription": "Owen_Naci",
  "ProtocolName": "taken_light_sed",
  "PulseSequenceDetails": "%SiemensSeq%_ep2d_bold",
  "ReceiveCoilActiveElements": "HEA;HEP",
  "ReceiveCoilName": "Head_32",
  "ReconMatrixPE": 64,
  "RefLinesPE": 24,
  "RepetitionTime": 2,
  "SAR": 0.12868,
  "ScanOptions": "FS",
  "ScanningSequence": "EP",
  "SequenceName": "_epfid2d1_64",
  "SequenceVariant": "SK",
  "SeriesDescription": "taken_light_sed",
  "SeriesNumber": 8,
  "ShimSetting": [5280, -6156, -3661, 356, 40, 51, 23, 32],
  "SliceThickness": 3,
  "SliceTiming": [1.92, 1.86, 1.8, 1.74, 1.68, 1.62, 1.56, 1.5, 1.44, 1.38, 1.32, 1.26, 1.2, 1.14, 1.08, 1.02, 0.96, 0.9, 0.84, 0.78, 0.72, 0.66, 0.6, 0.54, 0.48, 0.42, 0.36, 0.3, 0.24, 0.18, 0.12, 0.06, 0],
  "SoftwareVersions": "syngo_MR_D13D",
  "SpacingBetweenSlices": 3.75,
  "StationName": "AWP67007",
  "TaskName": "audiolight",
  "TotalReadoutTime": 0.0245701,
  "TxRefAmp": 288.366,
  "dcmmeta_affine": [
    [-2.9970450401306152, -0.12037375569343567, 0.07106153666973114, 95.74740600585938],
    [-0.1264280378818512, 2.974895715713501, -0.4575951397418976, -68.32610321044922],
    [0.04168485477566719, 0.3681113123893738, 3.7212977409362793, 21.92043685913086],
    [0.0, 0.0, 0.0, 1.0]
],
  "dcmmeta_reorient_transform": [
    [0.0, -1.0, 0.0, 63.0],
    [1.0, 0.0, 0.0, 0.0],
    [0.0, 0.0, 1.0, 0.0],
    [0.0, 0.0, 0.0, 1.0]
],
  "dcmmeta_shape": [64, 64, 33, 155],
  "dcmmeta_slice_dim": 2,
  "dcmmeta_version": 0.6,
  "global": {
    "const": {
      "AcquisitionMatrix": [0, 64, 64, 0],
      "AngioFlag": "N",
      "BitsAllocated": 16,
      "BitsStored": 12,
      "BodyPartExamined": "BRAIN",
      "Columns": 384,
      "EchoNumbers": 1,
      "EchoTime": 30.0,
      "EchoTrainLength": 31,
      "FlipAngle": 75.0,
      "HighBit": 11,
      "ImageOrientationPatient": [0.99901497733694, 0.04214267871957, 0.01389495184673, -0.0401245848044, 0.99163188903489, -0.1227037666226],
      "ImagePositionPatient": [-548.43124436411, -615.30411326106, 97.339679312838],
      "ImageType": [
        "ORIGINAL",
        "PRIMARY",
        "M",
        "ND",
        "NORM",
        "MOSAIC"
],
      "ImagedNucleus": "1H",
      "ImagingFrequency": 123.21098,
      "InPlanePhaseEncodingDirection": "ROW",
      "MRAcquisitionType": "2D",
      "MagneticFieldStrength": 3.0,
      "Manufacturer": "SIEMENS",
      "ManufacturerModelName": "Prisma_fit",
      "Modality": "MR",
      "NumberOfAverages": 1.0,
      "NumberOfPhaseEncodingSteps": 63,
      "PercentPhaseFieldOfView": 100.0,
      "PercentSampling": 100.0,
      "PerformedProcedureStepStartTime": "180215.790000",
      "PhotometricInterpretation": "MONOCHROME2",
      "PixelBandwidth": 1475.0,
      "PixelRepresentation": 0,
      "PixelSpacing": [3.0, 3.0],
      "ProtocolName": "taken_light sed",
      "RepetitionTime": 2000.0,
      "Rows": 384,
      "SAR": 0.12868043683394,
      "SamplesPerPixel": 1,
      "ScanOptions": "FS",
      "ScanningSequence": "EP",
      "SequenceName": "*epfid2d1_64",
      "SequenceVariant": "SK",
      "SeriesDescription": "taken_light sed",
      "SeriesNumber": 8,
      "SeriesTime": "191255.769000",
      "SliceLocation": 31.90456591705,
      "SliceThickness": 3.0,
      "SmallestImagePixelValue": 0,
      "SoftwareVersions": "syngo MR D13D",
      "SpacingBetweenSlices": 3.7499999908182,
      "SpecificCharacterSet": "ISO_IR 100",
      "StudyID": "1",
      "StudyTime": "180215.680000",
      "TimeOfLastCalibration": ["123723.000000", "123723.000000"],
      "TransmitCoilName": "Body",
      "VariableFlipAngleFlag": "N",
      "WindowCenterWidthExplanation": "Algo1",
      "dBdt": 0.0},
    "slices": {}
  },
  "time": {
    "samples": {
      "AcquisitionNumber": [1, 2, 3, 4, 5, 6, 7, 8, 9, 10, 11, 12, 13, 14, 15, 16, 17, 18, 19, 20, 21, 22, 23, 24, 25, 26, 27, 28, 29, 30, 31, 32, 33, 34, 35, 36, 37, 38, 39, 40, 41, 42, 43, 44, 45, 46, 47, 48, 49, 50, 51, 52, 53, 54, 55, 56, 57, 58, 59, 60, 61, 62, 63, 64, 65, 66, 67, 68, 69, 70, 71, 72, 73, 74, 75, 76, 77, 78, 79, 80, 81, 82, 83, 84, 85, 86, 87, 88, 89, 90, 91, 92, 93, 94, 95, 96, 97, 98, 99, 100, 101, 102, 103, 104, 105, 106, 107, 108, 109, 110, 111, 112, 113, 114, 115, 116, 117, 118, 119, 120, 121, 122, 123, 124, 125, 126, 127, 128, 129, 130, 131, 132, 133, 134, 135, 136, 137, 138, 139, 140, 141, 142, 143, 144, 145, 146, 147, 148, 149, 150, 151, 152, 153, 154, 155],
      "AcquisitionTime": ["191211.882500", "191213.882500", "191215.882500", "191217.882500", "191219.882500", "191221.882500", "191223.882500", "191225.882500", "191227.882500", "191229.882500", "191231.882500", "191233.882500", "191235.882500", "191237.882500", "191239.882500", "191241.882500", "191243.882500", "191245.882500", "191247.882500", "191249.882500", "191251.882500", "191253.882500", "191255.882500", "191257.882500", "191259.882500", "191301.882500", "191303.882500", "191305.882500", "191307.882500", "191309.882500", "191311.882500", "191313.882500", "191315.882500", "191317.882500", "191319.882500", "191321.882500", "191323.882500", "191325.882500", "191327.882500", "191329.882500", "191331.882500", "191333.882500", "191335.882500", "191337.882500", "191339.882500", "191341.882500", "191343.882500", "191345.882500", "191347.882500", "191349.882500", "191351.882500", "191353.882500", "191355.882500", "191357.882500", "191359.882500", "191401.882500", "191403.882500", "191405.882500", "191407.882500", "191409.882500", "191411.882500", "191413.882500", "191415.882500", "191417.882500", "191419.882500", "191421.882500", "191423.882500", "191425.882500", "191427.882500", "191429.885000", "191431.885000", "191433.885000", "191435.885000", "191437.885000", "191439.885000", "191441.885000", "191443.885000", "191445.885000", "191447.885000", "191449.885000", "191451.885000", "191453.885000", "191455.885000", "191457.885000", "191459.885000", "191501.885000", "191503.885000", "191505.885000", "191507.885000", "191509.885000", "191511.885000", "191513.885000", "191515.885000", "191517.885000", "191519.885000", "191521.885000", "191523.885000", "191525.885000", "191527.885000", "191529.885000", "191531.885000", "191533.885000", "191535.885000", "191537.885000", "191539.885000", "191541.885000", "191543.885000", "191545.885000", "191547.885000", "191549.885000", "191551.885000", "191553.885000", "191555.885000", "191557.885000", "191559.885000", "191601.885000", "191603.885000", "191605.885000", "191607.885000", "191609.885000", "191611.885000", "191613.885000", "191615.885000", "191617.885000", "191619.885000", "191621.885000", "191623.885000", "191625.885000", "191627.885000", "191629.885000", "191631.885000", "191633.885000", "191635.885000", "191637.885000", "191639.885000", "191641.885000", "191643.885000", "191645.885000", "191647.885000", "191649.885000", "191651.885000", "191653.885000", "191655.885000", "191657.885000", "191659.885000", "191701.885000", "191703.885000", "191705.885000", "191707.885000", "191709.885000", "191711.885000", "191713.885000", "191715.885000", "191717.885000", "191719.885000"],
      "ContentTime": ["191255.773000", "191255.777000", "191255.780000", "191255.783000", "191255.786000", "191255.792000", "191255.795000", "191255.798000", "191255.800000", "191255.803000", "191255.806000", "191255.816000", "191255.819000", "191255.822000", "191255.825000", "191255.828000", "191255.830000", "191255.833000", "191255.836000", "191255.839000", "191255.842000", "191255.844000", "191335.765000", "191335.769000", "191335.772000", "191335.775000", "191335.777000", "191335.780000", "191335.783000", "191335.786000", "191335.789000", "191335.791000", "191335.794000", "191335.797000", "191335.800000", "191335.803000", "191335.805000", "191335.809000", "191335.811000", "191335.814000", "191335.817000", "191335.820000", "191415.766000", "191415.769000", "191415.772000", "191415.775000", "191415.778000", "191415.781000", "191415.784000", "191415.787000", "191415.789000", "191415.792000", "191415.795000", "191415.798000", "191415.800000", "191415.803000", "191415.806000", "191415.809000", "191415.812000", "191415.815000", "191415.817000", "191415.820000", "191455.766000", "191455.769000", "191455.772000", "191455.775000", "191455.778000", "191455.780000", "191455.783000", "191455.786000", "191455.789000", "191455.791000", "191455.794000", "191455.797000", "191455.800000", "191455.803000", "191455.806000", "191455.809000", "191455.812000", "191455.815000", "191455.817000", "191455.820000", "191535.766000", "191535.769000", "191535.772000", "191535.775000", "191535.778000", "191535.781000", "191535.784000", "191535.787000", "191535.790000", "191535.793000", "191535.796000", "191535.799000", "191535.802000", "191535.804000", "191535.807000", "191535.810000", "191535.814000", "191535.817000", "191535.820000", "191535.823000", "191615.766000", "191615.769000", "191615.772000", "191615.775000", "191615.778000", "191615.781000", "191615.784000", "191615.786000", "191615.789000", "191615.792000", "191615.795000", "191615.798000", "191615.801000", "191615.803000", "191615.806000", "191615.809000", "191615.812000", "191615.815000", "191615.818000", "191615.821000", "191655.766000", "191655.769000", "191655.772000", "191655.775000", "191655.778000", "191655.781000", "191655.784000", "191655.786000", "191655.789000", "191655.792000", "191655.795000", "191655.798000", "191655.801000", "191655.803000", "191655.806000", "191655.820000", "191655.823000", "191655.826000", "191655.829000", "191655.832000", "191720.680000", "191720.683000", "191720.688000", "191720.691000", "191720.694000", "191720.698000", "191720.701000", "191720.704000", "191720.708000", "191720.712000", "191720.718000", "191720.726000", "191720.731000"],
      "InstanceCreationTime": ["191255.773000", "191255.777000", "191255.780000", "191255.783000", "191255.786000", "191255.792000", "191255.795000", "191255.798000", "191255.800000", "191255.803000", "191255.806000", "191255.816000", "191255.819000", "191255.822000", "191255.825000", "191255.828000", "191255.830000", "191255.833000", "191255.836000", "191255.839000", "191255.842000", "191255.844000", "191335.765000", "191335.769000", "191335.772000", "191335.775000", "191335.777000", "191335.780000", "191335.783000", "191335.786000", "191335.789000", "191335.791000", "191335.794000", "191335.797000", "191335.800000", "191335.803000", "191335.805000", "191335.809000", "191335.811000", "191335.814000", "191335.817000", "191335.820000", "191415.766000", "191415.769000", "191415.772000", "191415.775000", "191415.778000", "191415.781000", "191415.784000", "191415.787000", "191415.789000", "191415.792000", "191415.795000", "191415.798000", "191415.800000", "191415.803000", "191415.806000", "191415.809000", "191415.812000", "191415.815000", "191415.817000", "191415.820000", "191455.766000", "191455.769000", "191455.772000", "191455.775000", "191455.778000", "191455.780000", "191455.783000", "191455.786000", "191455.789000", "191455.791000", "191455.794000", "191455.797000", "191455.800000", "191455.803000", "191455.806000", "191455.809000", "191455.812000", "191455.815000", "191455.817000", "191455.820000", "191535.766000", "191535.769000", "191535.772000", "191535.775000", "191535.778000", "191535.781000", "191535.784000", "191535.787000", "191535.790000", "191535.793000", "191535.796000", "191535.799000", "191535.802000", "191535.804000", "191535.807000", "191535.810000", "191535.814000", "191535.817000", "191535.820000", "191535.823000", "191615.766000", "191615.769000", "191615.772000", "191615.775000", "191615.778000", "191615.781000", "191615.784000", "191615.786000", "191615.789000", "191615.792000", "191615.795000", "191615.798000", "191615.801000", "191615.803000", "191615.806000", "191615.809000", "191615.812000", "191615.815000", "191615.818000", "191615.821000", "191655.766000", "191655.769000", "191655.772000", "191655.775000", "191655.778000", "191655.781000", "191655.784000", "191655.786000", "191655.789000", "191655.792000", "191655.795000", "191655.798000", "191655.801000", "191655.803000", "191655.806000", "191655.820000", "191655.823000", "191655.826000", "191655.829000", "191655.832000", "191720.680000", "191720.683000", "191720.688000", "191720.691000", "191720.694000", "191720.698000", "191720.701000", "191720.704000", "191720.708000", "191720.712000", "191720.718000", "191720.726000", "191720.731000"],
      "InstanceNumber": [1, 2, 3, 4, 5, 6, 7, 8, 9, 10, 11, 12, 13, 14, 15, 16, 17, 18, 19, 20, 21, 22, 23, 24, 25, 26, 27, 28, 29, 30, 31, 32, 33, 34, 35, 36, 37, 38, 39, 40, 41, 42, 43, 44, 45, 46, 47, 48, 49, 50, 51, 52, 53, 54, 55, 56, 57, 58, 59, 60, 61, 62, 63, 64, 65, 66, 67, 68, 69, 70, 71, 72, 73, 74, 75, 76, 77, 78, 79, 80, 81, 82, 83, 84, 85, 86, 87, 88, 89, 90, 91, 92, 93, 94, 95, 96, 97, 98, 99, 100, 101, 102, 103, 104, 105, 106, 107, 108, 109, 110, 111, 112, 113, 114, 115, 116, 117, 118, 119, 120, 121, 122, 123, 124, 125, 126, 127, 128, 129, 130, 131, 132, 133, 134, 135, 136, 137, 138, 139, 140, 141, 142, 143, 144, 145, 146, 147, 148, 149, 150, 151, 152, 153, 154, 155],
      "LargestImagePixelValue": [1064, 1015, 1021, 1103, 1127, 1230, 1064, 1052, 1009, 1015, 1175, 1226, 1102, 1113, 980, 1010, 988, 1002, 1220, 1216, 1133, 1092, 1125, 1036, 1009, 976, 1015, 977, 1050, 1291, 1073, 992, 987, 1109, 1089, 1234, 1020, 1016, 983, 1045, 1006, 1148, 1069, 1026, 982, 1195, 1035, 983, 1022, 995, 990, 1011, 1099, 1165, 1091, 1002, 1025, 1045, 1000, 966, 998, 1074, 1172, 1205, 991, 1020, 975, 1009, 1118, 1181, 1057, 987, 1010, 1061, 1228, 1155, 1026, 1026, 1027, 1024, 1066, 1082, 1025, 1230, 993, 1008, 1029, 998, 1026, 1165, 1185, 1198, 1042, 1025, 1019, 1087, 975, 1216, 1182, 976, 994, 1330, 1016, 979, 1007, 996, 1015, 1155, 1098, 1031, 1061, 986, 1091, 1221, 1026, 975, 1189, 1256, 1031, 1049, 982, 1077, 1015, 1141, 1269, 1202, 1054, 1008, 1047, 1082, 1204, 1225, 1107, 1041, 1018, 1052, 1267, 1020, 1074, 1001, 1120, 1237, 1257, 1050, 1062, 1009, 1041, 1127, 1205, 1055, 1059, 1049, 1047, 1114, 1272],
      "WindowCenter": [487.0, 487.0, 486.0, 487.0, 487.0, 488.0, 485.0, 487.0, 486.0, 487.0, 489.0, 489.0, 488.0, 488.0, 486.0, 486.0, 486.0, 486.0, 489.0, 488.0, 488.0, 486.0, 487.0, 486.0, 485.0, 485.0, 486.0, 486.0, 487.0, 490.0, 488.0, 487.0, 486.0, 487.0, 486.0, 488.0, 486.0, 486.0, 486.0, 487.0, 486.0, 488.0, 487.0, 488.0, 487.0, 489.0, 489.0, 487.0, 486.0, 486.0, 485.0, 485.0, 486.0, 487.0, 487.0, 487.0, 487.0, 485.0, 486.0, 485.0, 486.0, 487.0, 488.0, 488.0, 486.0, 487.0, 486.0, 487.0, 488.0, 489.0, 487.0, 487.0, 488.0, 487.0, 490.0, 488.0, 487.0, 486.0, 486.0, 487.0, 487.0, 487.0, 485.0, 488.0, 485.0, 486.0, 486.0, 486.0, 487.0, 488.0, 489.0, 488.0, 487.0, 487.0, 486.0, 487.0, 485.0, 487.0, 489.0, 486.0, 486.0, 488.0, 486.0, 485.0, 484.0, 484.0, 485.0, 488.0, 487.0, 486.0, 488.0, 486.0, 488.0, 489.0, 488.0, 486.0, 489.0, 489.0, 487.0, 488.0, 486.0, 487.0, 486.0, 488.0, 488.0, 488.0, 487.0, 487.0, 487.0, 487.0, 488.0, 488.0, 487.0, 486.0, 487.0, 487.0, 490.0, 487.0, 488.0, 486.0, 488.0, 488.0, 488.0, 487.0, 486.0, 486.0, 485.0, 487.0, 487.0, 487.0, 487.0, 486.0, 486.0, 486.0, 488.0],
      "WindowWidth": [1020.0, 1018.0, 1017.0, 1018.0, 1018.0, 1019.0, 1016.0, 1018.0, 1016.0, 1018.0, 1022.0, 1022.0, 1020.0, 1019.0, 1017.0, 1016.0, 1017.0, 1017.0, 1022.0, 1021.0, 1020.0, 1017.0, 1017.0, 1016.0, 1016.0, 1016.0, 1016.0, 1018.0, 1018.0, 1023.0, 1019.0, 1018.0, 1016.0, 1018.0, 1017.0, 1021.0, 1017.0, 1017.0, 1016.0, 1018.0, 1018.0, 1019.0, 1019.0, 1022.0, 1020.0, 1023.0, 1022.0, 1019.0, 1018.0, 1016.0, 1014.0, 1015.0, 1017.0, 1018.0, 1019.0, 1018.0, 1019.0, 1016.0, 1016.0, 1015.0, 1017.0, 1018.0, 1019.0, 1020.0, 1016.0, 1018.0, 1016.0, 1018.0, 1020.0, 1021.0, 1019.0, 1019.0, 1020.0, 1019.0, 1023.0, 1021.0, 1019.0, 1017.0, 1017.0, 1019.0, 1018.0, 1019.0, 1016.0, 1019.0, 1016.0, 1016.0, 1018.0, 1016.0, 1019.0, 1021.0, 1022.0, 1021.0, 1018.0, 1019.0, 1017.0, 1018.0, 1015.0, 1017.0, 1022.0, 1017.0, 1017.0, 1020.0, 1018.0, 1015.0, 1014.0, 1014.0, 1016.0, 1020.0, 1019.0, 1018.0, 1020.0, 1016.0, 1021.0, 1021.0, 1020.0, 1018.0, 1023.0, 1022.0, 1019.0, 1020.0, 1018.0, 1020.0, 1018.0, 1020.0, 1021.0, 1020.0, 1018.0, 1018.0, 1019.0, 1018.0, 1021.0, 1020.0, 1019.0, 1017.0, 1019.0, 1018.0, 1023.0, 1019.0, 1020.0, 1017.0, 1020.0, 1021.0, 1020.0, 1019.0, 1017.0, 1017.0, 1015.0, 1019.0, 1019.0, 1019.0, 1018.0, 1017.0, 1017.0, 1017.0, 1021.0]
    },
    "slices": {}
  }
}