{
  "AcquisitionMatrixPE": 64,
  "AcquisitionNumber": 1,
  "AcquisitionTime": "19:18:12.030000",
  "BandwidthPerPixelPhaseEncode": 40.064,
  "BaseResolution": 64,
  "BodyPartExamined": "BRAIN",
  "ConsistencyInfo": "N4_VD13D_LATEST_20130810",
  "ConversionSoftware": "dcm2niix",
  "ConversionSoftwareVersion": "v1.0.20191031",
  "DerivedVendorReportedEchoSpacing": 0.000780002,
  "DeviceSerialNumber": "67007",
  "DwellTime": 5.3e-06,
  "EchoTime": 0.03,
  "EchoTrainLength": 31,
  "EffectiveEchoSpacing": 0.000390001,
  "FlipAngle": 75,
  "ImageOrientationPatientDICOM": [0.999015, 0.0421427, 0.013895, -0.0401246, 0.991632, -0.122704],
  "ImageType": [
    "ORIGINAL",
    "PRIMARY",
    "M",
    "ND",
    "NORM",
    "MOSAIC"
],
  "ImagingFrequency": 123.211,
  "InPlanePhaseEncodingDirectionDICOM": "ROW",
  "InstitutionAddress": "Perth_Drive_100_London_Ontario_CA_N6A_5K8",
  "InstitutionName": "Robarts_Research_Institute",
  "InstitutionalDepartmentName": "CFMM",
  "MRAcquisitionType": "2D",
  "MagneticFieldStrength": 3,
  "Manufacturer": "Siemens",
  "ManufacturersModelName": "Prisma_fit",
  "Modality": "MR",
  "ParallelReductionFactorInPlane": 2,
  "PartialFourier": 1,
  "PatientPosition": "HFS",
  "PercentPhaseFOV": 100,
  "PhaseEncodingDirection": "i",
  "PhaseEncodingSteps": 63,
  "PhaseResolution": 1,
  "PixelBandwidth": 1475,
  "ProcedureStepDescription": "Owen_Naci",
  "ProtocolName": "Resting_State_light_sed",
  "PulseSequenceDetails": "%SiemensSeq%_ep2d_bold",
  "ReceiveCoilActiveElements": "HEA;HEP",
  "ReceiveCoilName": "Head_32",
  "ReconMatrixPE": 64,
  "RefLinesPE": 24,
  "RepetitionTime": 2,
  "SAR": 0.12892,
  "ScanOptions": "FS",
  "ScanningSequence": "EP",
  "SequenceName": "_epfid2d1_64",
  "SequenceVariant": "SK",
  "SeriesDescription": "Resting_State_light_sed",
  "SeriesNumber": 10,
  "ShimSetting": [5280, -6156, -3661, 356, 40, 51, 23, 32],
  "SliceThickness": 3,
  "SliceTiming": [1.92, 1.86, 1.8, 1.74, 1.68, 1.62, 1.56, 1.5, 1.44, 1.38, 1.32, 1.26, 1.2, 1.14, 1.08, 1.02, 0.96, 0.9, 0.84, 0.78, 0.72, 0.66, 0.6, 0.54, 0.48, 0.42, 0.36, 0.3, 0.24, 0.18, 0.12, 0.06, 0],
  "SoftwareVersions": "syngo_MR_D13D",
  "SpacingBetweenSlices": 3.75,
  "StationName": "AWP67007",
  "TaskName": "restlight",
  "TotalReadoutTime": 0.0245701,
  "TxRefAmp": 288.366,
  "dcmmeta_affine": [
    [-2.9970450401306152, -0.12037375569343567, 0.07106153666973114, 95.74740600585938],
    [-0.1264280378818512, 2.974895715713501, -0.4575951397418976, -68.32610321044922],
    [0.04168485477566719, 0.3681113123893738, 3.7212977409362793, 21.92043685913086],
    [0.0, 0.0, 0.0, 1.0]
],
  "dcmmeta_reorient_transform": [
    [0.0, -1.0, 0.0, 63.0],
    [1.0, 0.0, 0.0, 0.0],
    [0.0, 0.0, 1.0, 0.0],
    [0.0, 0.0, 0.0, 1.0]
],
  "dcmmeta_shape": [64, 64, 33, 256],
  "dcmmeta_slice_dim": 2,
  "dcmmeta_version": 0.6,
  "global": {
    "const": {
      "AcquisitionMatrix": [0, 64, 64, 0],
      "AngioFlag": "N",
      "BitsAllocated": 16,
      "BitsStored": 12,
      "BodyPartExamined": "BRAIN",
      "Columns": 384,
      "EchoNumbers": 1,
      "EchoTime": 30.0,
      "EchoTrainLength": 31,
      "FlipAngle": 75.0,
      "HighBit": 11,
      "ImageOrientationPatient": [0.99901497733694, 0.04214267871957, 0.01389495184673, -0.0401245848044, 0.99163188903489, -0.1227037666226],
      "ImagePositionPatient": [-548.43124436411, -615.30411326106, 97.339679312838],
      "ImageType": [
        "ORIGINAL",
        "PRIMARY",
        "M",
        "ND",
        "NORM",
        "MOSAIC"
],
      "ImagedNucleus": "1H",
      "ImagingFrequency": 123.210984,
      "InPlanePhaseEncodingDirection": "ROW",
      "MRAcquisitionType": "2D",
      "MagneticFieldStrength": 3.0,
      "Manufacturer": "SIEMENS",
      "ManufacturerModelName": "Prisma_fit",
      "Modality": "MR",
      "NumberOfAverages": 1.0,
      "NumberOfPhaseEncodingSteps": 63,
      "PercentPhaseFieldOfView": 100.0,
      "PercentSampling": 100.0,
      "PerformedProcedureStepStartTime": "180215.790000",
      "PhotometricInterpretation": "MONOCHROME2",
      "PixelBandwidth": 1475.0,
      "PixelRepresentation": 0,
      "PixelSpacing": [3.0, 3.0],
      "ProtocolName": "Resting State_light sed",
      "RepetitionTime": 2000.0,
      "Rows": 384,
      "SAR": 0.12891953387651,
      "SamplesPerPixel": 1,
      "ScanOptions": "FS",
      "ScanningSequence": "EP",
      "SequenceName": "*epfid2d1_64",
      "SequenceVariant": "SK",
      "SeriesDescription": "Resting State_light sed",
      "SeriesNumber": 10,
      "SeriesTime": "191859.525000",
      "SliceLocation": 31.90456591705,
      "SliceThickness": 3.0,
      "SmallestImagePixelValue": 0,
      "SoftwareVersions": "syngo MR D13D",
      "SpacingBetweenSlices": 3.7499999908182,
      "SpecificCharacterSet": "ISO_IR 100",
      "StudyID": "1",
      "StudyTime": "180215.680000",
      "TimeOfLastCalibration": ["123723.000000", "123723.000000"],
      "TransmitCoilName": "Body",
      "VariableFlipAngleFlag": "N",
      "WindowCenterWidthExplanation": "Algo1",
      "dBdt": 0.0},
    "slices": {}
  },
  "time": {
    "samples": {
      "AcquisitionNumber": [1, 2, 3, 4, 5, 6, 7, 8, 9, 10, 11, 12, 13, 14, 15, 16, 17, 18, 19, 20, 21, 22, 23, 24, 25, 26, 27, 28, 29, 30, 31, 32, 33, 34, 35, 36, 37, 38, 39, 40, 41, 42, 43, 44, 45, 46, 47, 48, 49, 50, 51, 52, 53, 54, 55, 56, 57, 58, 59, 60, 61, 62, 63, 64, 65, 66, 67, 68, 69, 70, 71, 72, 73, 74, 75, 76, 77, 78, 79, 80, 81, 82, 83, 84, 85, 86, 87, 88, 89, 90, 91, 92, 93, 94, 95, 96, 97, 98, 99, 100, 101, 102, 103, 104, 105, 106, 107, 108, 109, 110, 111, 112, 113, 114, 115, 116, 117, 118, 119, 120, 121, 122, 123, 124, 125, 126, 127, 128, 129, 130, 131, 132, 133, 134, 135, 136, 137, 138, 139, 140, 141, 142, 143, 144, 145, 146, 147, 148, 149, 150, 151, 152, 153, 154, 155, 156, 157, 158, 159, 160, 161, 162, 163, 164, 165, 166, 167, 168, 169, 170, 171, 172, 173, 174, 175, 176, 177, 178, 179, 180, 181, 182, 183, 184, 185, 186, 187, 188, 189, 190, 191, 192, 193, 194, 195, 196, 197, 198, 199, 200, 201, 202, 203, 204, 205, 206, 207, 208, 209, 210, 211, 212, 213, 214, 215, 216, 217, 218, 219, 220, 221, 222, 223, 224, 225, 226, 227, 228, 229, 230, 231, 232, 233, 234, 235, 236, 237, 238, 239, 240, 241, 242, 243, 244, 245, 246, 247, 248, 249, 250, 251, 252, 253, 254, 255, 256],
      "AcquisitionTime": ["191812.030000", "191814.030000", "191816.030000", "191818.030000", "191820.030000", "191822.030000", "191824.030000", "191826.030000", "191828.030000", "191830.030000", "191832.030000", "191834.030000", "191836.030000", "191838.030000", "191840.030000", "191842.030000", "191844.030000", "191846.030000", "191848.030000", "191850.030000", "191852.030000", "191854.030000", "191856.030000", "191858.030000", "191900.030000", "191902.030000", "191904.030000", "191906.030000", "191908.030000", "191910.030000", "191912.030000", "191914.030000", "191916.030000", "191918.030000", "191920.032500", "191922.032500", "191924.032500", "191926.032500", "191928.032500", "191930.032500", "191932.032500", "191934.032500", "191936.032500", "191938.032500", "191940.032500", "191942.032500", "191944.032500", "191946.032500", "191948.032500", "191950.032500", "191952.032500", "191954.032500", "191956.032500", "191958.032500", "192000.032500", "192002.032500", "192004.032500", "192006.032500", "192008.032500", "192010.032500", "192012.032500", "192014.032500", "192016.032500", "192018.032500", "192020.032500", "192022.032500", "192024.032500", "192026.032500", "192028.032500", "192030.032500", "192032.032500", "192034.032500", "192036.032500", "192038.032500", "192040.032500", "192042.032500", "192044.032500", "192046.032500", "192048.032500", "192050.032500", "192052.032500", "192054.032500", "192056.032500", "192058.032500", "192100.032500", "192102.032500", "192104.032500", "192106.032500", "192108.032500", "192110.032500", "192112.032500", "192114.032500", "192116.032500", "192118.032500", "192120.032500", "192122.032500", "192124.032500", "192126.032500", "192128.032500", "192130.032500", "192132.032500", "192134.032500", "192136.032500", "192138.032500", "192140.032500", "192142.032500", "192144.032500", "192146.032500", "192148.032500", "192150.032500", "192152.032500", "192154.032500", "192156.032500", "192158.032500", "192200.032500", "192202.032500", "192204.032500", "192206.032500", "192208.032500", "192210.032500", "192212.032500", "192214.032500", "192216.032500", "192218.032500", "192220.032500", "192222.032500", "192224.032500", "192226.032500", "192228.032500", "192230.032500", "192232.032500", "192234.032500", "192236.032500", "192238.032500", "192240.032500", "192242.032500", "192244.032500", "192246.032500", "192248.032500", "192250.032500", "192252.032500", "192254.032500", "192256.032500", "192258.032500", "192300.032500", "192302.032500", "192304.032500", "192306.032500", "192308.032500", "192310.032500", "192312.032500", "192314.032500", "192316.032500", "192318.032500", "192320.032500", "192322.032500", "192324.032500", "192326.032500", "192328.032500", "192330.032500", "192332.032500", "192334.032500", "192336.032500", "192338.032500", "192340.032500", "192342.032500", "192344.032500", "192346.032500", "192348.032500", "192350.032500", "192352.032500", "192354.032500", "192356.032500", "192358.032500", "192400.032500", "192402.032500", "192404.032500", "192406.032500", "192408.032500", "192410.032500", "192412.032500", "192414.032500", "192416.032500", "192418.032500", "192420.032500", "192422.032500", "192424.032500", "192426.032500", "192428.032500", "192430.032500", "192432.032500", "192434.032500", "192436.032500", "192438.032500", "192440.032500", "192442.032500", "192444.032500", "192446.032500", "192448.032500", "192450.032500", "192452.032500", "192454.032500", "192456.032500", "192458.032500", "192500.032500", "192502.032500", "192504.032500", "192506.032500", "192508.032500", "192510.032500", "192512.032500", "192514.032500", "192516.032500", "192518.032500", "192520.032500", "192522.032500", "192524.032500", "192526.032500", "192528.032500", "192530.032500", "192532.032500", "192534.032500", "192536.032500", "192538.032500", "192540.032500", "192542.032500", "192544.032500", "192546.032500", "192548.032500", "192550.032500", "192552.032500", "192554.032500", "192556.032500", "192558.032500", "192600.032500", "192602.032500", "192604.032500", "192606.032500", "192608.032500", "192610.032500", "192612.032500", "192614.032500", "192616.032500", "192618.032500", "192620.032500", "192622.032500", "192624.032500", "192626.032500", "192628.032500", "192630.032500", "192632.032500", "192634.032500", "192636.032500", "192638.032500", "192640.032500", "192642.032500"],
      "ContentTime": ["191859.530000", "191859.534000", "191859.537000", "191859.540000", "191859.543000", "191859.546000", "191859.549000", "191859.553000", "191859.556000", "191859.559000", "191859.562000", "191859.565000", "191859.568000", "191859.571000", "191859.574000", "191859.577000", "191859.580000", "191859.583000", "191859.586000", "191859.589000", "191859.592000", "191859.598000", "191859.601000", "191859.604000", "191919.525000", "191919.529000", "191919.532000", "191919.535000", "191919.538000", "191919.541000", "191919.544000", "191919.547000", "191919.550000", "191919.553000", "191959.523000", "191959.526000", "191959.532000", "191959.535000", "191959.538000", "191959.542000", "191959.545000", "191959.548000", "191959.551000", "191959.554000", "191959.557000", "191959.560000", "191959.563000", "191959.566000", "191959.569000", "191959.573000", "191959.575000", "191959.578000", "191959.581000", "191959.585000", "192039.522000", "192039.526000", "192039.529000", "192039.532000", "192039.535000", "192039.538000", "192039.541000", "192039.544000", "192039.547000", "192039.550000", "192039.553000", "192039.556000", "192039.559000", "192039.562000", "192039.565000", "192039.568000", "192039.571000", "192039.574000", "192039.577000", "192039.580000", "192119.521000", "192119.525000", "192119.528000", "192119.531000", "192119.534000", "192119.539000", "192119.542000", "192119.545000", "192119.548000", "192119.551000", "192119.554000", "192119.557000", "192119.560000", "192119.563000", "192119.566000", "192119.569000", "192119.572000", "192119.575000", "192119.578000", "192119.582000", "192159.523000", "192159.527000", "192159.530000", "192159.533000", "192159.536000", "192159.539000", "192159.542000", "192159.545000", "192159.548000", "192159.551000", "192159.556000", "192159.559000", "192159.562000", "192159.566000", "192159.569000", "192159.572000", "192159.575000", "192159.578000", "192159.581000", "192159.584000", "192239.522000", "192239.526000", "192239.528000", "192239.532000", "192239.535000", "192239.537000", "192239.540000", "192239.543000", "192239.546000", "192239.550000", "192239.553000", "192239.556000", "192239.559000", "192239.562000", "192239.565000", "192239.568000", "192239.571000", "192239.574000", "192239.577000", "192239.580000", "192319.523000", "192319.526000", "192319.529000", "192319.532000", "192319.535000", "192319.538000", "192319.541000", "192319.544000", "192319.547000", "192319.550000", "192319.553000", "192319.556000", "192319.560000", "192319.563000", "192319.566000", "192319.569000", "192319.572000", "192319.575000", "192319.578000", "192319.581000", "192359.523000", "192359.528000", "192359.531000", "192359.534000", "192359.537000", "192359.540000", "192359.543000", "192359.546000", "192359.549000", "192359.552000", "192359.555000", "192359.558000", "192359.561000", "192359.564000", "192359.567000", "192359.570000", "192359.574000", "192359.577000", "192359.580000", "192359.583000", "192439.524000", "192439.527000", "192439.534000", "192439.537000", "192439.540000", "192439.543000", "192439.546000", "192439.549000", "192439.552000", "192439.556000", "192439.559000", "192439.562000", "192439.565000", "192439.568000", "192439.572000", "192439.575000", "192439.578000", "192439.581000", "192439.584000", "192439.588000", "192519.524000", "192519.527000", "192519.530000", "192519.533000", "192519.535000", "192519.538000", "192519.541000", "192519.544000", "192519.547000", "192519.549000", "192519.552000", "192519.555000", "192519.558000", "192519.561000", "192519.564000", "192519.567000", "192519.570000", "192519.573000", "192519.576000", "192519.578000", "192559.523000", "192559.527000", "192559.529000", "192559.533000", "192559.535000", "192559.538000", "192559.541000", "192559.544000", "192559.546000", "192559.549000", "192559.552000", "192559.555000", "192559.558000", "192559.561000", "192559.563000", "192559.566000", "192559.569000", "192559.572000", "192559.574000", "192559.577000", "192639.524000", "192639.528000", "192639.530000", "192639.533000", "192639.537000", "192639.539000", "192639.542000", "192639.545000", "192639.548000", "192639.551000", "192639.554000", "192639.556000", "192639.571000", "192639.575000", "192639.577000", "192639.580000", "192639.583000", "192639.586000", "192639.589000", "192639.592000", "192642.434000", "192642.438000"],
      "InstanceCreationTime": ["191859.530000", "191859.534000", "191859.537000", "191859.540000", "191859.543000", "191859.546000", "191859.549000", "191859.553000", "191859.556000", "191859.559000", "191859.562000", "191859.565000", "191859.568000", "191859.571000", "191859.574000", "191859.577000", "191859.580000", "191859.583000", "191859.586000", "191859.589000", "191859.592000", "191859.598000", "191859.601000", "191859.604000", "191919.525000", "191919.529000", "191919.532000", "191919.535000", "191919.538000", "191919.541000", "191919.544000", "191919.547000", "191919.550000", "191919.553000", "191959.523000", "191959.526000", "191959.532000", "191959.535000", "191959.538000", "191959.542000", "191959.545000", "191959.548000", "191959.551000", "191959.554000", "191959.557000", "191959.560000", "191959.563000", "191959.566000", "191959.569000", "191959.573000", "191959.575000", "191959.578000", "191959.581000", "191959.585000", "192039.522000", "192039.526000", "192039.529000", "192039.532000", "192039.535000", "192039.538000", "192039.541000", "192039.544000", "192039.547000", "192039.550000", "192039.553000", "192039.556000", "192039.559000", "192039.562000", "192039.565000", "192039.568000", "192039.571000", "192039.574000", "192039.577000", "192039.580000", "192119.521000", "192119.525000", "192119.528000", "192119.531000", "192119.534000", "192119.539000", "192119.542000", "192119.545000", "192119.548000", "192119.551000", "192119.554000", "192119.557000", "192119.560000", "192119.563000", "192119.566000", "192119.569000", "192119.572000", "192119.575000", "192119.578000", "192119.582000", "192159.523000", "192159.527000", "192159.530000", "192159.533000", "192159.536000", "192159.539000", "192159.542000", "192159.545000", "192159.548000", "192159.551000", "192159.556000", "192159.559000", "192159.562000", "192159.566000", "192159.569000", "192159.572000", "192159.575000", "192159.578000", "192159.581000", "192159.584000", "192239.522000", "192239.526000", "192239.528000", "192239.532000", "192239.535000", "192239.537000", "192239.540000", "192239.543000", "192239.546000", "192239.550000", "192239.553000", "192239.556000", "192239.559000", "192239.562000", "192239.565000", "192239.568000", "192239.571000", "192239.574000", "192239.577000", "192239.580000", "192319.523000", "192319.526000", "192319.529000", "192319.532000", "192319.535000", "192319.538000", "192319.541000", "192319.544000", "192319.547000", "192319.550000", "192319.553000", "192319.556000", "192319.560000", "192319.563000", "192319.566000", "192319.569000", "192319.572000", "192319.575000", "192319.578000", "192319.581000", "192359.523000", "192359.528000", "192359.531000", "192359.534000", "192359.537000", "192359.540000", "192359.543000", "192359.546000", "192359.549000", "192359.552000", "192359.555000", "192359.558000", "192359.561000", "192359.564000", "192359.567000", "192359.570000", "192359.574000", "192359.577000", "192359.580000", "192359.583000", "192439.524000", "192439.527000", "192439.534000", "192439.537000", "192439.540000", "192439.543000", "192439.546000", "192439.549000", "192439.552000", "192439.556000", "192439.559000", "192439.562000", "192439.565000", "192439.568000", "192439.572000", "192439.575000", "192439.578000", "192439.581000", "192439.584000", "192439.588000", "192519.524000", "192519.527000", "192519.530000", "192519.533000", "192519.535000", "192519.538000", "192519.541000", "192519.544000", "192519.547000", "192519.549000", "192519.552000", "192519.555000", "192519.558000", "192519.561000", "192519.564000", "192519.567000", "192519.570000", "192519.573000", "192519.576000", "192519.578000", "192559.523000", "192559.527000", "192559.529000", "192559.533000", "192559.535000", "192559.538000", "192559.541000", "192559.544000", "192559.546000", "192559.549000", "192559.552000", "192559.555000", "192559.558000", "192559.561000", "192559.563000", "192559.566000", "192559.569000", "192559.572000", "192559.574000", "192559.577000", "192639.524000", "192639.528000", "192639.530000", "192639.533000", "192639.537000", "192639.539000", "192639.542000", "192639.545000", "192639.548000", "192639.551000", "192639.554000", "192639.556000", "192639.571000", "192639.575000", "192639.577000", "192639.580000", "192639.583000", "192639.586000", "192639.589000", "192639.592000", "192642.434000", "192642.438000"],
      "InstanceNumber": [1, 2, 3, 4, 5, 6, 7, 8, 9, 10, 11, 12, 13, 14, 15, 16, 17, 18, 19, 20, 21, 22, 23, 24, 25, 26, 27, 28, 29, 30, 31, 32, 33, 34, 35, 36, 37, 38, 39, 40, 41, 42, 43, 44, 45, 46, 47, 48, 49, 50, 51, 52, 53, 54, 55, 56, 57, 58, 59, 60, 61, 62, 63, 64, 65, 66, 67, 68, 69, 70, 71, 72, 73, 74, 75, 76, 77, 78, 79, 80, 81, 82, 83, 84, 85, 86, 87, 88, 89, 90, 91, 92, 93, 94, 95, 96, 97, 98, 99, 100, 101, 102, 103, 104, 105, 106, 107, 108, 109, 110, 111, 112, 113, 114, 115, 116, 117, 118, 119, 120, 121, 122, 123, 124, 125, 126, 127, 128, 129, 130, 131, 132, 133, 134, 135, 136, 137, 138, 139, 140, 141, 142, 143, 144, 145, 146, 147, 148, 149, 150, 151, 152, 153, 154, 155, 156, 157, 158, 159, 160, 161, 162, 163, 164, 165, 166, 167, 168, 169, 170, 171, 172, 173, 174, 175, 176, 177, 178, 179, 180, 181, 182, 183, 184, 185, 186, 187, 188, 189, 190, 191, 192, 193, 194, 195, 196, 197, 198, 199, 200, 201, 202, 203, 204, 205, 206, 207, 208, 209, 210, 211, 212, 213, 214, 215, 216, 217, 218, 219, 220, 221, 222, 223, 224, 225, 226, 227, 228, 229, 230, 231, 232, 233, 234, 235, 236, 237, 238, 239, 240, 241, 242, 243, 244, 245, 246, 247, 248, 249, 250, 251, 252, 253, 254, 255, 256],
      "LargestImagePixelValue": [1051, 1023, 1000, 1129, 1218, 1150, 1029, 1015, 1041, 1095, 1249, 1211, 1048, 1004, 1070, 1229, 1177, 1003, 1039, 1056, 1265, 1019, 1017, 1023, 1202, 1300, 1150, 1036, 1011, 1050, 1060, 1172, 1162, 1159, 1015, 1013, 1039, 1022, 1004, 1232, 1236, 1031, 1003, 1013, 1073, 1100, 1135, 1137, 1191, 997, 1018, 1010, 1105, 1088, 1245, 1205, 1138, 1012, 1034, 1108, 1067, 1183, 1165, 1132, 1019, 1038, 1224, 1247, 1030, 1025, 1025, 1098, 1114, 1151, 1116, 1109, 1138, 1095, 1017, 1022, 1135, 1106, 1243, 1194, 1099, 1019, 1020, 1035, 1081, 1155, 1176, 1154, 1009, 1013, 1023, 1081, 1035, 1152, 1008, 1027, 1085, 1234, 1196, 1021, 1025, 1124, 1088, 1216, 1180, 1181, 1008, 1018, 1040, 1036, 1171, 1204, 1146, 1015, 1041, 1145, 1148, 1192, 1115, 1159, 1008, 1014, 1038, 1098, 1087, 1220, 1012, 1096, 1066, 1142, 1260, 1152, 1157, 1004, 1077, 1210, 1114, 1113, 1071, 1173, 1010, 1015, 1009, 1134, 1243, 1167, 1192, 1006, 1020, 1066, 1014, 1061, 1049, 1178, 1224, 1189, 1010, 1016, 1018, 1008, 1055, 1039, 1171, 1232, 1074, 1118, 1146, 1009, 1064, 1071, 1004, 1033, 1190, 1247, 1176, 1157, 1119, 999, 1018, 1021, 1094, 1009, 1014, 1112, 1134, 1125, 1187, 1169, 1138, 1023, 1012, 1166, 1019, 1026, 1136, 1037, 1111, 1171, 1240, 1007, 1006, 1004, 1149, 1207, 1240, 1015, 1022, 1081, 1211, 1037, 1029, 1042, 1206, 1318, 1026, 1042, 1082, 1158, 1142, 1237, 1177, 1037, 1021, 1202, 1019, 1122, 1122, 1267, 1007, 1079, 1195, 979, 1029, 1117, 1307, 1027, 1001, 1143, 1247, 1281, 1134, 1071, 1007, 1094, 1026, 1016, 1157, 1095, 1001, 1003, 985, 991],
      "WindowCenter": [488.0, 487.0, 485.0, 487.0, 487.0, 487.0, 486.0, 485.0, 486.0, 486.0, 487.0, 487.0, 485.0, 484.0, 486.0, 487.0, 487.0, 485.0, 485.0, 485.0, 487.0, 485.0, 485.0, 485.0, 487.0, 487.0, 485.0, 485.0, 484.0, 485.0, 484.0, 486.0, 484.0, 485.0, 486.0, 486.0, 486.0, 483.0, 483.0, 486.0, 486.0, 484.0, 483.0, 484.0, 484.0, 484.0, 485.0, 485.0, 485.0, 484.0, 484.0, 484.0, 485.0, 485.0, 486.0, 487.0, 485.0, 486.0, 486.0, 487.0, 485.0, 488.0, 487.0, 486.0, 485.0, 485.0, 487.0, 488.0, 485.0, 484.0, 485.0, 484.0, 485.0, 485.0, 485.0, 484.0, 486.0, 485.0, 485.0, 485.0, 486.0, 486.0, 487.0, 486.0, 485.0, 484.0, 483.0, 485.0, 485.0, 487.0, 485.0, 486.0, 484.0, 485.0, 484.0, 485.0, 485.0, 486.0, 485.0, 486.0, 487.0, 489.0, 488.0, 485.0, 485.0, 486.0, 485.0, 486.0, 486.0, 486.0, 485.0, 485.0, 486.0, 484.0, 487.0, 487.0, 487.0, 485.0, 485.0, 487.0, 486.0, 487.0, 485.0, 487.0, 485.0, 486.0, 486.0, 486.0, 486.0, 487.0, 486.0, 487.0, 487.0, 486.0, 487.0, 486.0, 487.0, 485.0, 487.0, 487.0, 486.0, 486.0, 485.0, 487.0, 485.0, 487.0, 486.0, 487.0, 488.0, 487.0, 487.0, 485.0, 486.0, 486.0, 486.0, 485.0, 485.0, 487.0, 488.0, 487.0, 485.0, 485.0, 485.0, 484.0, 485.0, 485.0, 486.0, 488.0, 486.0, 487.0, 487.0, 487.0, 487.0, 487.0, 484.0, 485.0, 487.0, 488.0, 488.0, 486.0, 486.0, 485.0, 486.0, 486.0, 486.0, 485.0, 485.0, 487.0, 487.0, 488.0, 487.0, 488.0, 487.0, 486.0, 485.0, 487.0, 487.0, 487.0, 487.0, 486.0, 486.0, 487.0, 487.0, 486.0, 485.0, 486.0, 487.0, 488.0, 488.0, 485.0, 486.0, 487.0, 489.0, 487.0, 487.0, 486.0, 487.0, 488.0, 485.0, 486.0, 485.0, 487.0, 486.0, 487.0, 487.0, 485.0, 485.0, 487.0, 487.0, 489.0, 489.0, 487.0, 486.0, 487.0, 488.0, 486.0, 486.0, 486.0, 488.0, 487.0, 486.0, 489.0, 490.0, 488.0, 486.0, 487.0, 485.0, 486.0, 483.0, 483.0, 485.0, 483.0, 481.0, 482.0, 483.0, 484.0],
      "WindowWidth": [1021.0, 1019.0, 1016.0, 1019.0, 1018.0, 1018.0, 1018.0, 1016.0, 1018.0, 1017.0, 1019.0, 1018.0, 1015.0, 1013.0, 1017.0, 1019.0, 1018.0, 1015.0, 1015.0, 1014.0, 1019.0, 1016.0, 1015.0, 1015.0, 1017.0, 1019.0, 1015.0, 1014.0, 1013.0, 1014.0, 1014.0, 1016.0, 1013.0, 1015.0, 1017.0, 1017.0, 1017.0, 1012.0, 1011.0, 1016.0, 1016.0, 1013.0, 1012.0, 1012.0, 1013.0, 1013.0, 1015.0, 1013.0, 1014.0, 1012.0, 1014.0, 1013.0, 1015.0, 1015.0, 1017.0, 1019.0, 1016.0, 1017.0, 1017.0, 1019.0, 1016.0, 1020.0, 1018.0, 1017.0, 1015.0, 1016.0, 1019.0, 1019.0, 1015.0, 1014.0, 1014.0, 1013.0, 1015.0, 1014.0, 1016.0, 1014.0, 1016.0, 1015.0, 1016.0, 1015.0, 1017.0, 1016.0, 1018.0, 1016.0, 1015.0, 1013.0, 1012.0, 1014.0, 1015.0, 1017.0, 1015.0, 1017.0, 1013.0, 1015.0, 1014.0, 1015.0, 1015.0, 1017.0, 1016.0, 1018.0, 1019.0, 1021.0, 1019.0, 1015.0, 1015.0, 1017.0, 1015.0, 1017.0, 1017.0, 1016.0, 1016.0, 1015.0, 1016.0, 1014.0, 1018.0, 1017.0, 1018.0, 1015.0, 1015.0, 1018.0, 1016.0, 1018.0, 1015.0, 1019.0, 1015.0, 1017.0, 1016.0, 1017.0, 1017.0, 1018.0, 1017.0, 1018.0, 1018.0, 1016.0, 1019.0, 1016.0, 1018.0, 1015.0, 1018.0, 1018.0, 1017.0, 1016.0, 1015.0, 1019.0, 1016.0, 1018.0, 1016.0, 1019.0, 1021.0, 1019.0, 1019.0, 1015.0, 1017.0, 1016.0, 1017.0, 1014.0, 1016.0, 1017.0, 1019.0, 1018.0, 1015.0, 1015.0, 1015.0, 1014.0, 1014.0, 1016.0, 1017.0, 1020.0, 1017.0, 1018.0, 1018.0, 1019.0, 1019.0, 1019.0, 1014.0, 1014.0, 1019.0, 1021.0, 1020.0, 1016.0, 1017.0, 1014.0, 1017.0, 1017.0, 1017.0, 1016.0, 1015.0, 1019.0, 1019.0, 1021.0, 1019.0, 1020.0, 1018.0, 1016.0, 1016.0, 1018.0, 1020.0, 1019.0, 1019.0, 1017.0, 1017.0, 1019.0, 1017.0, 1017.0, 1015.0, 1016.0, 1018.0, 1021.0, 1020.0, 1016.0, 1017.0, 1018.0, 1022.0, 1019.0, 1020.0, 1017.0, 1019.0, 1020.0, 1015.0, 1017.0, 1015.0, 1019.0, 1016.0, 1018.0, 1018.0, 1015.0, 1015.0, 1019.0, 1020.0, 1022.0, 1023.0, 1018.0, 1017.0, 1018.0, 1021.0, 1017.0, 1018.0, 1017.0, 1020.0, 1018.0, 1018.0, 1022.0, 1024.0, 1019.0, 1017.0, 1018.0, 1016.0, 1017.0, 1010.0, 1012.0, 1014.0, 1011.0, 1008.0, 1009.0, 1012.0, 1013.0]
    },
    "slices": {}
  }
}