{
  "AcquisitionMatrixPE": 64,
  "AcquisitionNumber": 1,
  "AcquisitionTime": "18:42:12.815000",
  "BandwidthPerPixelPhaseEncode": 40.064,
  "BaseResolution": 64,
  "BodyPartExamined": "BRAIN",
  "ConsistencyInfo": "N4_VD13D_LATEST_20130810",
  "ConversionSoftware": "dcm2niix",
  "ConversionSoftwareVersion": "v1.0.20191031",
  "DerivedVendorReportedEchoSpacing": 0.000780002,
  "DeviceSerialNumber": "67007",
  "DwellTime": 5.3e-06,
  "EchoTime": 0.03,
  "EchoTrainLength": 31,
  "EffectiveEchoSpacing": 0.000390001,
  "FlipAngle": 75,
  "ImageOrientationPatientDICOM": [0.999015, 0.0421427, 0.013895, -0.0401246, 0.991632, -0.122704],
  "ImageType": [
    "ORIGINAL",
    "PRIMARY",
    "M",
    "ND",
    "NORM",
    "MOSAIC"
],
  "ImagingFrequency": 123.211,
  "InPlanePhaseEncodingDirectionDICOM": "ROW",
  "InstitutionAddress": "Perth_Drive_100_London_Ontario_CA_N6A_5K8",
  "InstitutionName": "Robarts_Research_Institute",
  "InstitutionalDepartmentName": "CFMM",
  "MRAcquisitionType": "2D",
  "MagneticFieldStrength": 3,
  "Manufacturer": "Siemens",
  "ManufacturersModelName": "Prisma_fit",
  "Modality": "MR",
  "ParallelReductionFactorInPlane": 2,
  "PartialFourier": 1,
  "PatientPosition": "HFS",
  "PercentPhaseFOV": 100,
  "PhaseEncodingDirection": "i",
  "PhaseEncodingSteps": 63,
  "PhaseResolution": 1,
  "PixelBandwidth": 1475,
  "ProcedureStepDescription": "Owen_Naci",
  "ProtocolName": "Resting_State",
  "PulseSequenceDetails": "%SiemensSeq%_ep2d_bold",
  "ReceiveCoilActiveElements": "HEA;HEP",
  "ReceiveCoilName": "Head_32",
  "ReconMatrixPE": 64,
  "RefLinesPE": 24,
  "RepetitionTime": 2,
  "SAR": 0.12892,
  "ScanOptions": "FS",
  "ScanningSequence": "EP",
  "SequenceName": "_epfid2d1_64",
  "SequenceVariant": "SK",
  "SeriesDescription": "Resting_State",
  "SeriesNumber": 6,
  "ShimSetting": [5280, -6156, -3661, 356, 40, 51, 23, 32],
  "SliceThickness": 3,
  "SliceTiming": [1.92, 1.86, 1.8, 1.74, 1.68, 1.62, 1.56, 1.5, 1.44, 1.38, 1.32, 1.26, 1.2, 1.14, 1.08, 1.02, 0.96, 0.9, 0.84, 0.78, 0.72, 0.66, 0.6, 0.54, 0.48, 0.42, 0.36, 0.3, 0.24, 0.18, 0.12, 0.06, 0],
  "SoftwareVersions": "syngo_MR_D13D",
  "SpacingBetweenSlices": 3.75,
  "StationName": "AWP67007",
  "TaskName": "rest",
  "TotalReadoutTime": 0.0245701,
  "TxRefAmp": 288.366,
  "dcmmeta_affine": [
    [-2.9970450401306152, -0.12037375569343567, 0.07106153666973114, 95.74740600585938],
    [-0.1264280378818512, 2.974895715713501, -0.4575951397418976, -68.32610321044922],
    [0.04168485477566719, 0.3681113123893738, 3.7212977409362793, 21.92043685913086],
    [0.0, 0.0, 0.0, 1.0]
],
  "dcmmeta_reorient_transform": [
    [0.0, -1.0, 0.0, 63.0],
    [1.0, 0.0, 0.0, 0.0],
    [0.0, 0.0, 1.0, 0.0],
    [0.0, 0.0, 0.0, 1.0]
],
  "dcmmeta_shape": [64, 64, 33, 256],
  "dcmmeta_slice_dim": 2,
  "dcmmeta_version": 0.6,
  "global": {
    "const": {
      "AcquisitionMatrix": [0, 64, 64, 0],
      "AngioFlag": "N",
      "BitsAllocated": 16,
      "BitsStored": 12,
      "BodyPartExamined": "BRAIN",
      "Columns": 384,
      "EchoNumbers": 1,
      "EchoTime": 30.0,
      "EchoTrainLength": 31,
      "FlipAngle": 75.0,
      "HighBit": 11,
      "ImageOrientationPatient": [0.99901497733694, 0.04214267871957, 0.01389495184673, -0.0401245848044, 0.99163188903489, -0.1227037666226],
      "ImagePositionPatient": [-548.43124436411, -615.30411326106, 97.339679312838],
      "ImageType": [
        "ORIGINAL",
        "PRIMARY",
        "M",
        "ND",
        "NORM",
        "MOSAIC"
],
      "ImagedNucleus": "1H",
      "ImagingFrequency": 123.210985,
      "InPlanePhaseEncodingDirection": "ROW",
      "MRAcquisitionType": "2D",
      "MagneticFieldStrength": 3.0,
      "Manufacturer": "SIEMENS",
      "ManufacturerModelName": "Prisma_fit",
      "Modality": "MR",
      "NumberOfAverages": 1.0,
      "NumberOfPhaseEncodingSteps": 63,
      "PercentPhaseFieldOfView": 100.0,
      "PercentSampling": 100.0,
      "PerformedProcedureStepStartTime": "180215.790000",
      "PhotometricInterpretation": "MONOCHROME2",
      "PixelBandwidth": 1475.0,
      "PixelRepresentation": 0,
      "PixelSpacing": [3.0, 3.0],
      "ProtocolName": "Resting State",
      "RepetitionTime": 2000.0,
      "Rows": 384,
      "SAR": 0.12891953387651,
      "SamplesPerPixel": 1,
      "ScanOptions": "FS",
      "ScanningSequence": "EP",
      "SequenceName": "*epfid2d1_64",
      "SequenceVariant": "SK",
      "SeriesDescription": "Resting State",
      "SeriesNumber": 6,
      "SeriesTime": "184259.525000",
      "SliceLocation": 31.90456591705,
      "SliceThickness": 3.0,
      "SmallestImagePixelValue": 0,
      "SoftwareVersions": "syngo MR D13D",
      "SpacingBetweenSlices": 3.7499999908182,
      "SpecificCharacterSet": "ISO_IR 100",
      "StudyID": "1",
      "StudyTime": "180215.680000",
      "TimeOfLastCalibration": ["123723.000000", "123723.000000"],
      "TransmitCoilName": "Body",
      "VariableFlipAngleFlag": "N",
      "WindowCenterWidthExplanation": "Algo1",
      "dBdt": 0.0},
    "slices": {}
  },
  "time": {
    "samples": {
      "AcquisitionNumber": [1, 2, 3, 4, 5, 6, 7, 8, 9, 10, 11, 12, 13, 14, 15, 16, 17, 18, 19, 20, 21, 22, 23, 24, 25, 26, 27, 28, 29, 30, 31, 32, 33, 34, 35, 36, 37, 38, 39, 40, 41, 42, 43, 44, 45, 46, 47, 48, 49, 50, 51, 52, 53, 54, 55, 56, 57, 58, 59, 60, 61, 62, 63, 64, 65, 66, 67, 68, 69, 70, 71, 72, 73, 74, 75, 76, 77, 78, 79, 80, 81, 82, 83, 84, 85, 86, 87, 88, 89, 90, 91, 92, 93, 94, 95, 96, 97, 98, 99, 100, 101, 102, 103, 104, 105, 106, 107, 108, 109, 110, 111, 112, 113, 114, 115, 116, 117, 118, 119, 120, 121, 122, 123, 124, 125, 126, 127, 128, 129, 130, 131, 132, 133, 134, 135, 136, 137, 138, 139, 140, 141, 142, 143, 144, 145, 146, 147, 148, 149, 150, 151, 152, 153, 154, 155, 156, 157, 158, 159, 160, 161, 162, 163, 164, 165, 166, 167, 168, 169, 170, 171, 172, 173, 174, 175, 176, 177, 178, 179, 180, 181, 182, 183, 184, 185, 186, 187, 188, 189, 190, 191, 192, 193, 194, 195, 196, 197, 198, 199, 200, 201, 202, 203, 204, 205, 206, 207, 208, 209, 210, 211, 212, 213, 214, 215, 216, 217, 218, 219, 220, 221, 222, 223, 224, 225, 226, 227, 228, 229, 230, 231, 232, 233, 234, 235, 236, 237, 238, 239, 240, 241, 242, 243, 244, 245, 246, 247, 248, 249, 250, 251, 252, 253, 254, 255, 256],
      "AcquisitionTime": ["184212.815000", "184214.815000", "184216.815000", "184218.815000", "184220.815000", "184222.815000", "184224.815000", "184226.815000", "184228.815000", "184230.815000", "184232.815000", "184234.815000", "184236.815000", "184238.815000", "184240.815000", "184242.815000", "184244.815000", "184246.815000", "184248.815000", "184250.815000", "184252.815000", "184254.815000", "184256.815000", "184258.815000", "184300.815000", "184302.815000", "184304.815000", "184306.815000", "184308.815000", "184310.815000", "184312.815000", "184314.815000", "184316.815000", "184318.815000", "184320.815000", "184322.815000", "184324.815000", "184326.815000", "184328.815000", "184330.815000", "184332.815000", "184334.815000", "184336.815000", "184338.815000", "184340.815000", "184342.815000", "184344.815000", "184346.815000", "184348.815000", "184350.815000", "184352.815000", "184354.815000", "184356.815000", "184358.815000", "184400.815000", "184402.815000", "184404.815000", "184406.815000", "184408.815000", "184410.815000", "184412.815000", "184414.815000", "184416.815000", "184418.815000", "184420.815000", "184422.815000", "184424.815000", "184426.815000", "184428.815000", "184430.815000", "184432.815000", "184434.815000", "184436.815000", "184438.815000", "184440.815000", "184442.815000", "184444.815000", "184446.815000", "184448.815000", "184450.815000", "184452.815000", "184454.815000", "184456.815000", "184458.815000", "184500.815000", "184502.815000", "184504.815000", "184506.815000", "184508.815000", "184510.815000", "184512.815000", "184514.815000", "184516.815000", "184518.815000", "184520.815000", "184522.815000", "184524.815000", "184526.815000", "184528.815000", "184530.815000", "184532.815000", "184534.815000", "184536.815000", "184538.815000", "184540.815000", "184542.815000", "184544.815000", "184546.815000", "184548.815000", "184550.815000", "184552.815000", "184554.815000", "184556.815000", "184558.815000", "184600.815000", "184602.815000", "184604.815000", "184606.815000", "184608.815000", "184610.815000", "184612.815000", "184614.815000", "184616.815000", "184618.815000", "184620.815000", "184622.815000", "184624.815000", "184626.815000", "184628.815000", "184630.815000", "184632.815000", "184634.815000", "184636.815000", "184638.815000", "184640.815000", "184642.815000", "184644.815000", "184646.815000", "184648.815000", "184650.815000", "184652.815000", "184654.815000", "184656.815000", "184658.815000", "184700.815000", "184702.815000", "184704.815000", "184706.815000", "184708.815000", "184710.815000", "184712.815000", "184714.815000", "184716.815000", "184718.815000", "184720.815000", "184722.815000", "184724.815000", "184726.815000", "184728.817500", "184730.817500", "184732.817500", "184734.817500", "184736.817500", "184738.817500", "184740.817500", "184742.817500", "184744.817500", "184746.817500", "184748.817500", "184750.817500", "184752.817500", "184754.817500", "184756.817500", "184758.817500", "184800.817500", "184802.817500", "184804.817500", "184806.817500", "184808.817500", "184810.817500", "184812.817500", "184814.817500", "184816.817500", "184818.817500", "184820.817500", "184822.817500", "184824.817500", "184826.817500", "184828.817500", "184830.817500", "184832.817500", "184834.817500", "184836.817500", "184838.817500", "184840.817500", "184842.817500", "184844.817500", "184846.817500", "184848.817500", "184850.817500", "184852.817500", "184854.817500", "184856.817500", "184858.817500", "184900.817500", "184902.817500", "184904.817500", "184906.817500", "184908.817500", "184910.817500", "184912.817500", "184914.817500", "184916.817500", "184918.817500", "184920.817500", "184922.817500", "184924.817500", "184926.817500", "184928.817500", "184930.817500", "184932.817500", "184934.817500", "184936.817500", "184938.817500", "184940.817500", "184942.817500", "184944.817500", "184946.817500", "184948.817500", "184950.817500", "184952.817500", "184954.817500", "184956.817500", "184958.817500", "185000.817500", "185002.817500", "185004.817500", "185006.817500", "185008.817500", "185010.817500", "185012.817500", "185014.817500", "185016.817500", "185018.817500", "185020.817500", "185022.817500", "185024.817500", "185026.817500", "185028.817500", "185030.817500", "185032.817500", "185034.817500", "185036.817500", "185038.817500", "185040.817500", "185042.817500"],
      "ContentTime": ["184259.530000", "184259.535000", "184259.537000", "184259.540000", "184259.551000", "184259.554000", "184259.557000", "184259.560000", "184259.563000", "184259.567000", "184259.570000", "184259.573000", "184259.576000", "184259.579000", "184259.581000", "184259.584000", "184259.587000", "184259.590000", "184259.593000", "184259.596000", "184259.599000", "184259.602000", "184259.605000", "184339.522000", "184339.525000", "184339.528000", "184339.531000", "184339.535000", "184339.539000", "184339.541000", "184339.544000", "184339.547000", "184339.550000", "184339.553000", "184339.555000", "184339.559000", "184339.562000", "184339.565000", "184339.568000", "184339.571000", "184339.574000", "184339.576000", "184339.579000", "184419.522000", "184419.525000", "184419.528000", "184419.532000", "184419.535000", "184419.538000", "184419.541000", "184419.544000", "184419.547000", "184419.549000", "184419.552000", "184419.556000", "184419.559000", "184419.562000", "184419.565000", "184419.567000", "184419.571000", "184419.573000", "184419.576000", "184419.579000", "184459.523000", "184459.526000", "184459.530000", "184459.534000", "184459.537000", "184459.540000", "184459.542000", "184459.545000", "184459.548000", "184459.551000", "184459.554000", "184459.557000", "184459.560000", "184459.563000", "184459.566000", "184459.569000", "184459.572000", "184459.575000", "184459.578000", "184459.581000", "184539.522000", "184539.526000", "184539.530000", "184539.533000", "184539.536000", "184539.539000", "184539.542000", "184539.545000", "184539.547000", "184539.550000", "184539.554000", "184539.557000", "184539.560000", "184539.563000", "184539.566000", "184539.569000", "184539.572000", "184539.575000", "184539.578000", "184539.581000", "184619.523000", "184619.526000", "184619.529000", "184619.532000", "184619.535000", "184619.538000", "184619.541000", "184619.544000", "184619.546000", "184619.549000", "184619.552000", "184619.555000", "184619.559000", "184619.562000", "184619.565000", "184619.567000", "184619.570000", "184619.573000", "184619.576000", "184619.579000", "184659.523000", "184659.527000", "184659.531000", "184659.534000", "184659.536000", "184659.539000", "184659.542000", "184659.545000", "184659.548000", "184659.550000", "184659.555000", "184659.557000", "184659.560000", "184659.572000", "184659.575000", "184659.578000", "184659.581000", "184659.584000", "184659.586000", "184659.589000", "184739.522000", "184739.526000", "184739.529000", "184739.532000", "184739.535000", "184739.538000", "184739.541000", "184739.544000", "184739.547000", "184739.549000", "184739.552000", "184739.556000", "184739.559000", "184739.562000", "184739.565000", "184739.568000", "184739.571000", "184739.574000", "184739.577000", "184739.579000", "184819.523000", "184819.526000", "184819.530000", "184819.533000", "184819.535000", "184819.538000", "184819.541000", "184819.544000", "184819.547000", "184819.550000", "184819.553000", "184819.556000", "184819.559000", "184819.562000", "184819.565000", "184819.568000", "184819.571000", "184819.574000", "184819.577000", "184819.579000", "184819.582000", "184859.522000", "184859.525000", "184859.528000", "184859.533000", "184859.536000", "184859.539000", "184859.541000", "184859.544000", "184859.556000", "184859.559000", "184859.562000", "184859.565000", "184859.568000", "184859.571000", "184859.574000", "184859.577000", "184859.580000", "184859.583000", "184859.586000", "184919.522000", "184919.527000", "184919.530000", "184919.533000", "184919.536000", "184919.539000", "184919.542000", "184919.545000", "184919.548000", "184919.551000", "184959.523000", "184959.526000", "184959.529000", "184959.532000", "184959.535000", "184959.538000", "184959.541000", "184959.544000", "184959.547000", "184959.550000", "184959.552000", "184959.555000", "184959.558000", "184959.561000", "184959.564000", "184959.567000", "184959.570000", "184959.573000", "184959.576000", "184959.579000", "184959.582000", "185039.523000", "185039.527000", "185039.530000", "185039.533000", "185039.536000", "185039.540000", "185039.543000", "185039.546000", "185039.548000", "185039.552000", "185039.555000", "185039.558000", "185039.561000", "185039.563000", "185039.566000", "185039.569000", "185039.572000", "185039.574000", "185039.577000", "185039.580000", "185043.526000", "185043.529000"],
      "InstanceCreationTime": ["184259.530000", "184259.535000", "184259.537000", "184259.540000", "184259.551000", "184259.554000", "184259.557000", "184259.560000", "184259.563000", "184259.567000", "184259.570000", "184259.573000", "184259.576000", "184259.579000", "184259.581000", "184259.584000", "184259.587000", "184259.590000", "184259.593000", "184259.596000", "184259.599000", "184259.602000", "184259.605000", "184339.522000", "184339.525000", "184339.528000", "184339.531000", "184339.535000", "184339.539000", "184339.541000", "184339.544000", "184339.547000", "184339.550000", "184339.553000", "184339.555000", "184339.559000", "184339.562000", "184339.565000", "184339.568000", "184339.571000", "184339.574000", "184339.576000", "184339.579000", "184419.522000", "184419.525000", "184419.528000", "184419.532000", "184419.535000", "184419.538000", "184419.541000", "184419.544000", "184419.547000", "184419.549000", "184419.552000", "184419.556000", "184419.559000", "184419.562000", "184419.565000", "184419.567000", "184419.571000", "184419.573000", "184419.576000", "184419.579000", "184459.523000", "184459.526000", "184459.530000", "184459.534000", "184459.537000", "184459.540000", "184459.542000", "184459.545000", "184459.548000", "184459.551000", "184459.554000", "184459.557000", "184459.560000", "184459.563000", "184459.566000", "184459.569000", "184459.572000", "184459.575000", "184459.578000", "184459.581000", "184539.522000", "184539.526000", "184539.530000", "184539.533000", "184539.536000", "184539.539000", "184539.542000", "184539.545000", "184539.547000", "184539.550000", "184539.554000", "184539.557000", "184539.560000", "184539.563000", "184539.566000", "184539.569000", "184539.572000", "184539.575000", "184539.578000", "184539.581000", "184619.523000", "184619.526000", "184619.529000", "184619.532000", "184619.535000", "184619.538000", "184619.541000", "184619.544000", "184619.546000", "184619.549000", "184619.552000", "184619.555000", "184619.559000", "184619.562000", "184619.565000", "184619.567000", "184619.570000", "184619.573000", "184619.576000", "184619.579000", "184659.523000", "184659.527000", "184659.531000", "184659.534000", "184659.536000", "184659.539000", "184659.542000", "184659.545000", "184659.548000", "184659.550000", "184659.555000", "184659.557000", "184659.560000", "184659.572000", "184659.575000", "184659.578000", "184659.581000", "184659.584000", "184659.586000", "184659.589000", "184739.522000", "184739.526000", "184739.529000", "184739.532000", "184739.535000", "184739.538000", "184739.541000", "184739.544000", "184739.547000", "184739.549000", "184739.552000", "184739.556000", "184739.559000", "184739.562000", "184739.565000", "184739.568000", "184739.571000", "184739.574000", "184739.577000", "184739.579000", "184819.523000", "184819.526000", "184819.530000", "184819.533000", "184819.535000", "184819.538000", "184819.541000", "184819.544000", "184819.547000", "184819.550000", "184819.553000", "184819.556000", "184819.559000", "184819.562000", "184819.565000", "184819.568000", "184819.571000", "184819.574000", "184819.577000", "184819.579000", "184819.582000", "184859.522000", "184859.525000", "184859.528000", "184859.533000", "184859.536000", "184859.539000", "184859.541000", "184859.544000", "184859.556000", "184859.559000", "184859.562000", "184859.565000", "184859.568000", "184859.571000", "184859.574000", "184859.577000", "184859.580000", "184859.583000", "184859.586000", "184919.522000", "184919.527000", "184919.530000", "184919.533000", "184919.536000", "184919.539000", "184919.542000", "184919.545000", "184919.548000", "184919.551000", "184959.523000", "184959.526000", "184959.529000", "184959.532000", "184959.535000", "184959.538000", "184959.541000", "184959.544000", "184959.547000", "184959.550000", "184959.552000", "184959.555000", "184959.558000", "184959.561000", "184959.564000", "184959.567000", "184959.570000", "184959.573000", "184959.576000", "184959.579000", "184959.582000", "185039.523000", "185039.527000", "185039.530000", "185039.533000", "185039.536000", "185039.540000", "185039.543000", "185039.546000", "185039.548000", "185039.552000", "185039.555000", "185039.558000", "185039.561000", "185039.563000", "185039.566000", "185039.569000", "185039.572000", "185039.574000", "185039.577000", "185039.580000", "185043.526000", "185043.529000"],
      "InstanceNumber": [1, 2, 3, 4, 5, 6, 7, 8, 9, 10, 11, 12, 13, 14, 15, 16, 17, 18, 19, 20, 21, 22, 23, 24, 25, 26, 27, 28, 29, 30, 31, 32, 33, 34, 35, 36, 37, 38, 39, 40, 41, 42, 43, 44, 45, 46, 47, 48, 49, 50, 51, 52, 53, 54, 55, 56, 57, 58, 59, 60, 61, 62, 63, 64, 65, 66, 67, 68, 69, 70, 71, 72, 73, 74, 75, 76, 77, 78, 79, 80, 81, 82, 83, 84, 85, 86, 87, 88, 89, 90, 91, 92, 93, 94, 95, 96, 97, 98, 99, 100, 101, 102, 103, 104, 105, 106, 107, 108, 109, 110, 111, 112, 113, 114, 115, 116, 117, 118, 119, 120, 121, 122, 123, 124, 125, 126, 127, 128, 129, 130, 131, 132, 133, 134, 135, 136, 137, 138, 139, 140, 141, 142, 143, 144, 145, 146, 147, 148, 149, 150, 151, 152, 153, 154, 155, 156, 157, 158, 159, 160, 161, 162, 163, 164, 165, 166, 167, 168, 169, 170, 171, 172, 173, 174, 175, 176, 177, 178, 179, 180, 181, 182, 183, 184, 185, 186, 187, 188, 189, 190, 191, 192, 193, 194, 195, 196, 197, 198, 199, 200, 201, 202, 203, 204, 205, 206, 207, 208, 209, 210, 211, 212, 213, 214, 215, 216, 217, 218, 219, 220, 221, 222, 223, 224, 225, 226, 227, 228, 229, 230, 231, 232, 233, 234, 235, 236, 237, 238, 239, 240, 241, 242, 243, 244, 245, 246, 247, 248, 249, 250, 251, 252, 253, 254, 255, 256],
      "LargestImagePixelValue": [1097, 1171, 1054, 1073, 1050, 1157, 1058, 1198, 1067, 1150, 1104, 1060, 1107, 1061, 1199, 1065, 1148, 1068, 1088, 1120, 1110, 1147, 1092, 1113, 1048, 1135, 1063, 1078, 1173, 1042, 1251, 1049, 1158, 1058, 1119, 1050, 1129, 1077, 1158, 1035, 1208, 1038, 1204, 1049, 1086, 1239, 1059, 1042, 1128, 1054, 1231, 1068, 1202, 1070, 1126, 1052, 1061, 1191, 1054, 1147, 1055, 1055, 1059, 1060, 1163, 1063, 1227, 1053, 1167, 1051, 1083, 1118, 1057, 1184, 1052, 1142, 1049, 1071, 1205, 1169, 1054, 1112, 1050, 1095, 1173, 1063, 1198, 1168, 1059, 1209, 1056, 1066, 1168, 1058, 1154, 1063, 1083, 1170, 1055, 1221, 1062, 1074, 1073, 1159, 1118, 1207, 1050, 1191, 1050, 1154, 1061, 1133, 1178, 1053, 1130, 1058, 1132, 1113, 1058, 1129, 1058, 1064, 1082, 1063, 1067, 1225, 1072, 1126, 1132, 1063, 1091, 1062, 1191, 1055, 1052, 1253, 1057, 1115, 1056, 1061, 1245, 1059, 1209, 1071, 1181, 1059, 1233, 1065, 1175, 1054, 1052, 1044, 1180, 1053, 1205, 1059, 1100, 1065, 1084, 1091, 1168, 1079, 1064, 1239, 1059, 1051, 1138, 1059, 1224, 1054, 1120, 1072, 1071, 1100, 1117, 1172, 1050, 1264, 1055, 1073, 1053, 1233, 1180, 1101, 1046, 1041, 1219, 1056, 1255, 1047, 1105, 1059, 1058, 1051, 1237, 1100, 1122, 1070, 1128, 1052, 1108, 1052, 1165, 1044, 1226, 1055, 1186, 1061, 1185, 1057, 1174, 1056, 1216, 1065, 1243, 1065, 1227, 1062, 1140, 1062, 1111, 1054, 1115, 1047, 1116, 1046, 1265, 1049, 1082, 1235, 1054, 1057, 1179, 1061, 1207, 1061, 1167, 1047, 1108, 1242, 1053, 1117, 1161, 1059, 1134, 1052, 1053, 1232, 1052, 1190, 1095, 1067, 1135, 1055, 1090, 1056],
      "WindowCenter": [486.0, 486.0, 485.0, 485.0, 485.0, 486.0, 485.0, 486.0, 485.0, 487.0, 487.0, 485.0, 486.0, 485.0, 487.0, 485.0, 486.0, 485.0, 485.0, 486.0, 486.0, 486.0, 485.0, 485.0, 485.0, 486.0, 485.0, 486.0, 487.0, 485.0, 487.0, 484.0, 486.0, 485.0, 486.0, 486.0, 487.0, 486.0, 487.0, 486.0, 487.0, 486.0, 487.0, 485.0, 486.0, 487.0, 484.0, 483.0, 485.0, 485.0, 487.0, 485.0, 487.0, 486.0, 486.0, 485.0, 485.0, 486.0, 485.0, 486.0, 485.0, 485.0, 486.0, 485.0, 486.0, 485.0, 487.0, 485.0, 486.0, 485.0, 485.0, 485.0, 485.0, 487.0, 485.0, 487.0, 485.0, 486.0, 487.0, 485.0, 485.0, 486.0, 486.0, 486.0, 487.0, 486.0, 488.0, 486.0, 485.0, 486.0, 486.0, 485.0, 486.0, 485.0, 486.0, 485.0, 485.0, 487.0, 485.0, 486.0, 486.0, 486.0, 486.0, 486.0, 486.0, 487.0, 486.0, 487.0, 486.0, 487.0, 485.0, 486.0, 486.0, 486.0, 487.0, 485.0, 486.0, 486.0, 486.0, 486.0, 486.0, 486.0, 486.0, 486.0, 485.0, 487.0, 485.0, 486.0, 485.0, 485.0, 487.0, 486.0, 488.0, 486.0, 486.0, 488.0, 485.0, 487.0, 486.0, 486.0, 488.0, 486.0, 488.0, 486.0, 488.0, 486.0, 488.0, 487.0, 487.0, 486.0, 486.0, 486.0, 487.0, 486.0, 487.0, 486.0, 486.0, 486.0, 486.0, 486.0, 486.0, 486.0, 486.0, 487.0, 486.0, 485.0, 487.0, 486.0, 488.0, 486.0, 486.0, 486.0, 486.0, 486.0, 486.0, 486.0, 486.0, 487.0, 485.0, 485.0, 486.0, 489.0, 487.0, 485.0, 484.0, 484.0, 486.0, 484.0, 487.0, 484.0, 485.0, 485.0, 485.0, 487.0, 488.0, 488.0, 487.0, 487.0, 487.0, 486.0, 487.0, 486.0, 487.0, 486.0, 488.0, 486.0, 487.0, 485.0, 487.0, 485.0, 487.0, 485.0, 488.0, 486.0, 488.0, 486.0, 487.0, 486.0, 487.0, 486.0, 486.0, 486.0, 485.0, 486.0, 486.0, 486.0, 488.0, 486.0, 486.0, 487.0, 486.0, 487.0, 488.0, 487.0, 488.0, 486.0, 487.0, 486.0, 486.0, 487.0, 486.0, 487.0, 487.0, 486.0, 487.0, 486.0, 486.0, 488.0, 486.0, 487.0, 485.0, 485.0, 486.0, 486.0, 487.0, 486.0],
      "WindowWidth": [1018.0, 1016.0, 1015.0, 1015.0, 1015.0, 1016.0, 1014.0, 1017.0, 1014.0, 1017.0, 1018.0, 1016.0, 1018.0, 1015.0, 1017.0, 1015.0, 1016.0, 1014.0, 1015.0, 1015.0, 1016.0, 1016.0, 1015.0, 1015.0, 1014.0, 1016.0, 1014.0, 1015.0, 1017.0, 1014.0, 1017.0, 1013.0, 1016.0, 1014.0, 1016.0, 1016.0, 1017.0, 1017.0, 1018.0, 1016.0, 1019.0, 1016.0, 1018.0, 1015.0, 1016.0, 1019.0, 1013.0, 1012.0, 1015.0, 1015.0, 1019.0, 1015.0, 1018.0, 1016.0, 1016.0, 1016.0, 1014.0, 1017.0, 1014.0, 1015.0, 1015.0, 1014.0, 1016.0, 1015.0, 1017.0, 1015.0, 1017.0, 1014.0, 1017.0, 1015.0, 1015.0, 1015.0, 1014.0, 1019.0, 1015.0, 1019.0, 1015.0, 1017.0, 1017.0, 1014.0, 1014.0, 1016.0, 1016.0, 1016.0, 1017.0, 1016.0, 1020.0, 1017.0, 1014.0, 1017.0, 1016.0, 1014.0, 1016.0, 1014.0, 1016.0, 1015.0, 1015.0, 1017.0, 1015.0, 1017.0, 1016.0, 1015.0, 1016.0, 1017.0, 1016.0, 1018.0, 1016.0, 1019.0, 1016.0, 1017.0, 1015.0, 1016.0, 1017.0, 1016.0, 1018.0, 1015.0, 1016.0, 1017.0, 1017.0, 1017.0, 1017.0, 1016.0, 1017.0, 1016.0, 1015.0, 1017.0, 1015.0, 1016.0, 1015.0, 1014.0, 1018.0, 1016.0, 1020.0, 1016.0, 1016.0, 1019.0, 1016.0, 1018.0, 1016.0, 1016.0, 1020.0, 1016.0, 1020.0, 1017.0, 1019.0, 1017.0, 1020.0, 1018.0, 1018.0, 1016.0, 1016.0, 1016.0, 1019.0, 1016.0, 1018.0, 1016.0, 1016.0, 1016.0, 1016.0, 1017.0, 1016.0, 1016.0, 1016.0, 1018.0, 1016.0, 1016.0, 1018.0, 1016.0, 1020.0, 1016.0, 1017.0, 1016.0, 1016.0, 1017.0, 1017.0, 1017.0, 1016.0, 1018.0, 1015.0, 1014.0, 1016.0, 1021.0, 1019.0, 1015.0, 1012.0, 1012.0, 1016.0, 1013.0, 1018.0, 1014.0, 1015.0, 1015.0, 1015.0, 1018.0, 1020.0, 1021.0, 1019.0, 1018.0, 1018.0, 1017.0, 1018.0, 1017.0, 1019.0, 1016.0, 1020.0, 1016.0, 1019.0, 1016.0, 1018.0, 1015.0, 1018.0, 1015.0, 1019.0, 1016.0, 1020.0, 1016.0, 1019.0, 1016.0, 1018.0, 1017.0, 1016.0, 1016.0, 1016.0, 1016.0, 1017.0, 1016.0, 1020.0, 1016.0, 1017.0, 1018.0, 1017.0, 1018.0, 1020.0, 1018.0, 1020.0, 1017.0, 1019.0, 1017.0, 1017.0, 1019.0, 1017.0, 1018.0, 1018.0, 1017.0, 1018.0, 1017.0, 1016.0, 1020.0, 1017.0, 1019.0, 1015.0, 1016.0, 1016.0, 1016.0, 1019.0, 1017.0]
    },
    "slices": {}
  }
}