{
  "AcquisitionMatrixPE": 64,
  "AcquisitionNumber": 1,
  "AcquisitionTime": "20:20:5.822500",
  "BandwidthPerPixelPhaseEncode": 40.064,
  "BaseResolution": 64,
  "BodyPartExamined": "BRAIN",
  "ConsistencyInfo": "N4_VD13D_LATEST_20130810",
  "ConversionSoftware": "dcm2niix",
  "ConversionSoftwareVersion": "v1.0.20191031",
  "DerivedVendorReportedEchoSpacing": 0.000780002,
  "DeviceSerialNumber": "67007",
  "DwellTime": 5.3e-06,
  "EchoTime": 0.03,
  "EchoTrainLength": 31,
  "EffectiveEchoSpacing": 0.000390001,
  "FlipAngle": 75,
  "ImageOrientationPatientDICOM": [0.999015, 0.0421427, 0.013895, -0.0401246, 0.991632, -0.122704],
  "ImageType": [
    "ORIGINAL",
    "PRIMARY",
    "M",
    "ND",
    "NORM",
    "MOSAIC"
],
  "ImagingFrequency": 123.211,
  "InPlanePhaseEncodingDirectionDICOM": "ROW",
  "InstitutionAddress": "Perth_Drive_100_London_Ontario_CA_N6A_5K8",
  "InstitutionName": "Robarts_Research_Institute",
  "InstitutionalDepartmentName": "CFMM",
  "MRAcquisitionType": "2D",
  "MagneticFieldStrength": 3,
  "Manufacturer": "Siemens",
  "ManufacturersModelName": "Prisma_fit",
  "Modality": "MR",
  "ParallelReductionFactorInPlane": 2,
  "PartialFourier": 1,
  "PatientPosition": "HFS",
  "PercentPhaseFOV": 100,
  "PhaseEncodingDirection": "i",
  "PhaseEncodingSteps": 63,
  "PhaseResolution": 1,
  "PixelBandwidth": 1475,
  "ProcedureStepDescription": "Owen_Naci",
  "ProtocolName": "taken_recovery",
  "PulseSequenceDetails": "%SiemensSeq%_ep2d_bold",
  "ReceiveCoilActiveElements": "HEA;HEP",
  "ReceiveCoilName": "Head_32",
  "ReconMatrixPE": 64,
  "RefLinesPE": 24,
  "RepetitionTime": 2,
  "SAR": 0.12868,
  "ScanOptions": "FS",
  "ScanningSequence": "EP",
  "SequenceName": "_epfid2d1_64",
  "SequenceVariant": "SK",
  "SeriesDescription": "taken_recovery",
  "SeriesNumber": 23,
  "ShimSetting": [5280, -6156, -3661, 356, 40, 51, 23, 32],
  "SliceThickness": 3,
  "SliceTiming": [1.92, 1.86, 1.8, 1.74, 1.68, 1.62, 1.56, 1.5, 1.44, 1.38, 1.32, 1.26, 1.2, 1.14, 1.08, 1.02, 0.96, 0.9, 0.84, 0.78, 0.72, 0.66, 0.6, 0.54, 0.48, 0.42, 0.36, 0.3, 0.24, 0.18, 0.12, 0.06, 0],
  "SoftwareVersions": "syngo_MR_D13D",
  "SpacingBetweenSlices": 3.75,
  "StationName": "AWP67007",
  "TaskName": "audiorecovery",
  "TotalReadoutTime": 0.0245701,
  "TxRefAmp": 288.366,
  "dcmmeta_affine": [
    [-2.9970450401306152, -0.12037375569343567, 0.07106153666973114, 95.74740600585938],
    [-0.1264280378818512, 2.974895715713501, -0.4575951397418976, -68.32610321044922],
    [0.04168485477566719, 0.3681113123893738, 3.7212977409362793, 21.92043685913086],
    [0.0, 0.0, 0.0, 1.0]
],
  "dcmmeta_reorient_transform": [
    [0.0, -1.0, 0.0, 63.0],
    [1.0, 0.0, 0.0, 0.0],
    [0.0, 0.0, 1.0, 0.0],
    [0.0, 0.0, 0.0, 1.0]
],
  "dcmmeta_shape": [64, 64, 33, 155],
  "dcmmeta_slice_dim": 2,
  "dcmmeta_version": 0.6,
  "global": {
    "const": {
      "AcquisitionMatrix": [0, 64, 64, 0],
      "AngioFlag": "N",
      "BitsAllocated": 16,
      "BitsStored": 12,
      "BodyPartExamined": "BRAIN",
      "Columns": 384,
      "EchoNumbers": 1,
      "EchoTime": 30.0,
      "EchoTrainLength": 31,
      "FlipAngle": 75.0,
      "HighBit": 11,
      "ImageOrientationPatient": [0.99901497733694, 0.04214267871957, 0.01389495184673, -0.0401245848044, 0.99163188903489, -0.1227037666226],
      "ImagePositionPatient": [-548.43124436411, -615.30411326106, 97.339679312838],
      "ImageType": [
        "ORIGINAL",
        "PRIMARY",
        "M",
        "ND",
        "NORM",
        "MOSAIC"
],
      "ImagedNucleus": "1H",
      "ImagingFrequency": 123.210997,
      "InPlanePhaseEncodingDirection": "ROW",
      "MRAcquisitionType": "2D",
      "MagneticFieldStrength": 3.0,
      "Manufacturer": "SIEMENS",
      "ManufacturerModelName": "Prisma_fit",
      "Modality": "MR",
      "NumberOfAverages": 1.0,
      "NumberOfPhaseEncodingSteps": 63,
      "PercentPhaseFieldOfView": 100.0,
      "PercentSampling": 100.0,
      "PerformedProcedureStepStartTime": "180215.790000",
      "PhotometricInterpretation": "MONOCHROME2",
      "PixelBandwidth": 1475.0,
      "PixelRepresentation": 0,
      "PixelSpacing": [3.0, 3.0],
      "ProtocolName": "taken_recovery",
      "RepetitionTime": 2000.0,
      "Rows": 384,
      "SAR": 0.12868043683394,
      "SamplesPerPixel": 1,
      "ScanOptions": "FS",
      "ScanningSequence": "EP",
      "SequenceName": "*epfid2d1_64",
      "SequenceVariant": "SK",
      "SeriesDescription": "taken_recovery",
      "SeriesNumber": 23,
      "SeriesTime": "202015.768000",
      "SliceLocation": 31.90456591705,
      "SliceThickness": 3.0,
      "SmallestImagePixelValue": 0,
      "SoftwareVersions": "syngo MR D13D",
      "SpacingBetweenSlices": 3.7499999908182,
      "SpecificCharacterSet": "ISO_IR 100",
      "StudyID": "1",
      "StudyTime": "180215.680000",
      "TimeOfLastCalibration": ["123723.000000", "123723.000000"],
      "TransmitCoilName": "Body",
      "VariableFlipAngleFlag": "N",
      "WindowCenterWidthExplanation": "Algo1",
      "dBdt": 0.0},
    "slices": {}
  },
  "time": {
    "samples": {
      "AcquisitionNumber": [1, 2, 3, 4, 5, 6, 7, 8, 9, 10, 11, 12, 13, 14, 15, 16, 17, 18, 19, 20, 21, 22, 23, 24, 25, 26, 27, 28, 29, 30, 31, 32, 33, 34, 35, 36, 37, 38, 39, 40, 41, 42, 43, 44, 45, 46, 47, 48, 49, 50, 51, 52, 53, 54, 55, 56, 57, 58, 59, 60, 61, 62, 63, 64, 65, 66, 67, 68, 69, 70, 71, 72, 73, 74, 75, 76, 77, 78, 79, 80, 81, 82, 83, 84, 85, 86, 87, 88, 89, 90, 91, 92, 93, 94, 95, 96, 97, 98, 99, 100, 101, 102, 103, 104, 105, 106, 107, 108, 109, 110, 111, 112, 113, 114, 115, 116, 117, 118, 119, 120, 121, 122, 123, 124, 125, 126, 127, 128, 129, 130, 131, 132, 133, 134, 135, 136, 137, 138, 139, 140, 141, 142, 143, 144, 145, 146, 147, 148, 149, 150, 151, 152, 153, 154, 155],
      "AcquisitionTime": ["202005.822500", "202007.822500", "202009.822500", "202011.822500", "202013.822500", "202015.822500", "202017.822500", "202019.822500", "202021.822500", "202023.822500", "202025.822500", "202027.822500", "202029.822500", "202031.822500", "202033.822500", "202035.822500", "202037.822500", "202039.822500", "202041.822500", "202043.822500", "202045.822500", "202047.822500", "202049.822500", "202051.822500", "202053.822500", "202055.822500", "202057.822500", "202059.822500", "202101.822500", "202103.822500", "202105.822500", "202107.822500", "202109.822500", "202111.822500", "202113.822500", "202115.822500", "202117.822500", "202119.822500", "202121.822500", "202123.822500", "202125.822500", "202127.822500", "202129.822500", "202131.822500", "202133.822500", "202135.822500", "202137.822500", "202139.822500", "202141.822500", "202143.822500", "202145.822500", "202147.822500", "202149.822500", "202151.822500", "202153.822500", "202155.822500", "202157.822500", "202159.822500", "202201.822500", "202203.822500", "202205.822500", "202207.822500", "202209.822500", "202211.822500", "202213.822500", "202215.822500", "202217.822500", "202219.822500", "202221.822500", "202223.822500", "202225.822500", "202227.822500", "202229.822500", "202231.822500", "202233.822500", "202235.822500", "202237.822500", "202239.822500", "202241.822500", "202243.822500", "202245.822500", "202247.822500", "202249.822500", "202251.822500", "202253.822500", "202255.822500", "202257.822500", "202259.822500", "202301.822500", "202303.822500", "202305.822500", "202307.822500", "202309.822500", "202311.822500", "202313.822500", "202315.822500", "202317.822500", "202319.822500", "202321.822500", "202323.822500", "202325.822500", "202327.822500", "202329.822500", "202331.822500", "202333.822500", "202335.822500", "202337.822500", "202339.822500", "202341.822500", "202343.822500", "202345.822500", "202347.822500", "202349.822500", "202351.822500", "202353.822500", "202355.822500", "202357.822500", "202359.822500", "202401.822500", "202403.822500", "202405.822500", "202407.822500", "202409.822500", "202411.822500", "202413.822500", "202415.822500", "202417.822500", "202419.822500", "202421.822500", "202423.822500", "202425.822500", "202427.822500", "202429.822500", "202431.822500", "202433.822500", "202435.822500", "202437.822500", "202439.822500", "202441.822500", "202443.822500", "202445.822500", "202447.822500", "202449.822500", "202451.822500", "202453.822500", "202455.822500", "202457.822500", "202459.822500", "202501.822500", "202503.822500", "202505.822500", "202507.822500", "202509.822500", "202511.822500", "202513.822500"],
      "ContentTime": ["202015.774000", "202015.778000", "202015.781000", "202015.784000", "202015.787000", "202055.765000", "202055.768000", "202055.771000", "202055.773000", "202055.776000", "202055.779000", "202055.782000", "202055.785000", "202055.788000", "202055.791000", "202055.794000", "202055.797000", "202055.799000", "202055.802000", "202055.805000", "202055.808000", "202055.813000", "202055.816000", "202055.819000", "202055.822000", "202135.765000", "202135.769000", "202135.772000", "202135.775000", "202135.778000", "202135.780000", "202135.783000", "202135.786000", "202135.789000", "202135.792000", "202135.795000", "202135.798000", "202135.801000", "202135.804000", "202135.806000", "202135.809000", "202135.812000", "202135.815000", "202135.818000", "202135.821000", "202215.766000", "202215.769000", "202215.772000", "202215.775000", "202215.778000", "202215.781000", "202215.783000", "202215.786000", "202215.789000", "202215.792000", "202215.795000", "202215.798000", "202215.800000", "202215.803000", "202215.806000", "202215.809000", "202215.812000", "202215.815000", "202215.817000", "202215.820000", "202255.766000", "202255.769000", "202255.772000", "202255.774000", "202255.777000", "202255.780000", "202255.783000", "202255.786000", "202255.789000", "202255.792000", "202255.795000", "202255.798000", "202255.801000", "202255.804000", "202255.807000", "202255.809000", "202255.812000", "202255.815000", "202255.818000", "202255.821000", "202335.765000", "202335.768000", "202335.771000", "202335.774000", "202335.776000", "202335.779000", "202335.782000", "202335.785000", "202335.794000", "202335.797000", "202335.800000", "202335.803000", "202335.805000", "202335.808000", "202335.811000", "202335.814000", "202335.817000", "202335.820000", "202335.823000", "202335.825000", "202415.765000", "202415.768000", "202415.771000", "202415.774000", "202415.776000", "202415.779000", "202415.782000", "202415.785000", "202415.788000", "202415.791000", "202415.794000", "202415.797000", "202415.800000", "202415.803000", "202415.806000", "202415.808000", "202415.811000", "202415.814000", "202415.816000", "202415.819000", "202455.766000", "202455.769000", "202455.772000", "202455.775000", "202455.777000", "202455.780000", "202455.783000", "202455.786000", "202455.789000", "202455.792000", "202455.795000", "202455.798000", "202455.801000", "202455.804000", "202455.807000", "202455.810000", "202455.812000", "202455.815000", "202455.818000", "202455.821000", "202514.694000", "202514.697000", "202514.700000", "202514.703000", "202514.706000", "202514.708000", "202514.711000", "202514.714000", "202514.718000", "202514.721000"],
      "InstanceCreationTime": ["202015.774000", "202015.778000", "202015.781000", "202015.784000", "202015.787000", "202055.765000", "202055.768000", "202055.771000", "202055.773000", "202055.776000", "202055.779000", "202055.782000", "202055.785000", "202055.788000", "202055.791000", "202055.794000", "202055.797000", "202055.799000", "202055.802000", "202055.805000", "202055.808000", "202055.813000", "202055.816000", "202055.819000", "202055.822000", "202135.765000", "202135.769000", "202135.772000", "202135.775000", "202135.778000", "202135.780000", "202135.783000", "202135.786000", "202135.789000", "202135.792000", "202135.795000", "202135.798000", "202135.801000", "202135.804000", "202135.806000", "202135.809000", "202135.812000", "202135.815000", "202135.818000", "202135.821000", "202215.766000", "202215.769000", "202215.772000", "202215.775000", "202215.778000", "202215.781000", "202215.783000", "202215.786000", "202215.789000", "202215.792000", "202215.795000", "202215.798000", "202215.800000", "202215.803000", "202215.806000", "202215.809000", "202215.812000", "202215.815000", "202215.817000", "202215.820000", "202255.766000", "202255.769000", "202255.772000", "202255.774000", "202255.777000", "202255.780000", "202255.783000", "202255.786000", "202255.789000", "202255.792000", "202255.795000", "202255.798000", "202255.801000", "202255.804000", "202255.807000", "202255.809000", "202255.812000", "202255.815000", "202255.818000", "202255.821000", "202335.765000", "202335.768000", "202335.771000", "202335.774000", "202335.776000", "202335.779000", "202335.782000", "202335.785000", "202335.794000", "202335.797000", "202335.800000", "202335.803000", "202335.805000", "202335.808000", "202335.811000", "202335.814000", "202335.817000", "202335.820000", "202335.823000", "202335.825000", "202415.765000", "202415.768000", "202415.771000", "202415.774000", "202415.776000", "202415.779000", "202415.782000", "202415.785000", "202415.788000", "202415.791000", "202415.794000", "202415.797000", "202415.800000", "202415.803000", "202415.806000", "202415.808000", "202415.811000", "202415.814000", "202415.816000", "202415.819000", "202455.766000", "202455.769000", "202455.772000", "202455.775000", "202455.777000", "202455.780000", "202455.783000", "202455.786000", "202455.789000", "202455.792000", "202455.795000", "202455.798000", "202455.801000", "202455.804000", "202455.807000", "202455.810000", "202455.812000", "202455.815000", "202455.818000", "202455.821000", "202514.694000", "202514.697000", "202514.700000", "202514.703000", "202514.706000", "202514.708000", "202514.711000", "202514.714000", "202514.718000", "202514.721000"],
      "InstanceNumber": [1, 2, 3, 4, 5, 6, 7, 8, 9, 10, 11, 12, 13, 14, 15, 16, 17, 18, 19, 20, 21, 22, 23, 24, 25, 26, 27, 28, 29, 30, 31, 32, 33, 34, 35, 36, 37, 38, 39, 40, 41, 42, 43, 44, 45, 46, 47, 48, 49, 50, 51, 52, 53, 54, 55, 56, 57, 58, 59, 60, 61, 62, 63, 64, 65, 66, 67, 68, 69, 70, 71, 72, 73, 74, 75, 76, 77, 78, 79, 80, 81, 82, 83, 84, 85, 86, 87, 88, 89, 90, 91, 92, 93, 94, 95, 96, 97, 98, 99, 100, 101, 102, 103, 104, 105, 106, 107, 108, 109, 110, 111, 112, 113, 114, 115, 116, 117, 118, 119, 120, 121, 122, 123, 124, 125, 126, 127, 128, 129, 130, 131, 132, 133, 134, 135, 136, 137, 138, 139, 140, 141, 142, 143, 144, 145, 146, 147, 148, 149, 150, 151, 152, 153, 154, 155],
      "LargestImagePixelValue": [1057, 1123, 1023, 1157, 1278, 1165, 1042, 1039, 1042, 1040, 1227, 1249, 1032, 1023, 1084, 1165, 1044, 1031, 1329, 1069, 1042, 1051, 1032, 1029, 1024, 1223, 1089, 1048, 1032, 1046, 1020, 1041, 1258, 1047, 1038, 1027, 1026, 1024, 1096, 1046, 1042, 1032, 1039, 1020, 1033, 1083, 1177, 1022, 1029, 1028, 1026, 1019, 1022, 1065, 1025, 1259, 1029, 1036, 1031, 1024, 1026, 1033, 1032, 1030, 1029, 1345, 1040, 1068, 1056, 1027, 1133, 1057, 1048, 1037, 1039, 1028, 1041, 1039, 1040, 1035, 1189, 1044, 1047, 1158, 1098, 1041, 1041, 1041, 1055, 1026, 1037, 1031, 1072, 1114, 1063, 1134, 1044, 1097, 1062, 1034, 1036, 1050, 1041, 1033, 1044, 1051, 1045, 1125, 1165, 1032, 1035, 1117, 1033, 1109, 1042, 1027, 1037, 1048, 1037, 1032, 1031, 1031, 1138, 1043, 1030, 1242, 1037, 1090, 1047, 1023, 1033, 1140, 1035, 1218, 1044, 1027, 1060, 1024, 1044, 1036, 1075, 1028, 1034, 1126, 1150, 1016, 1128, 1119, 1025, 1019, 1011, 1019, 1086, 1167, 1033],
      "WindowCenter": [488.0, 489.0, 488.0, 491.0, 487.0, 485.0, 484.0, 484.0, 485.0, 485.0, 487.0, 487.0, 483.0, 485.0, 486.0, 486.0, 485.0, 487.0, 490.0, 485.0, 484.0, 486.0, 485.0, 484.0, 485.0, 487.0, 485.0, 485.0, 484.0, 483.0, 484.0, 484.0, 486.0, 484.0, 483.0, 484.0, 483.0, 484.0, 485.0, 484.0, 483.0, 484.0, 484.0, 484.0, 484.0, 485.0, 485.0, 484.0, 484.0, 484.0, 485.0, 485.0, 485.0, 485.0, 486.0, 488.0, 486.0, 485.0, 486.0, 484.0, 485.0, 485.0, 486.0, 484.0, 485.0, 487.0, 483.0, 485.0, 485.0, 484.0, 487.0, 485.0, 484.0, 482.0, 483.0, 483.0, 484.0, 483.0, 484.0, 484.0, 486.0, 484.0, 485.0, 485.0, 486.0, 483.0, 484.0, 483.0, 484.0, 484.0, 483.0, 484.0, 484.0, 486.0, 484.0, 484.0, 483.0, 483.0, 482.0, 482.0, 483.0, 483.0, 483.0, 484.0, 484.0, 483.0, 482.0, 485.0, 486.0, 483.0, 484.0, 486.0, 483.0, 484.0, 482.0, 484.0, 484.0, 485.0, 484.0, 484.0, 483.0, 485.0, 485.0, 484.0, 484.0, 487.0, 483.0, 485.0, 484.0, 482.0, 483.0, 484.0, 483.0, 485.0, 483.0, 484.0, 485.0, 483.0, 484.0, 484.0, 485.0, 483.0, 483.0, 485.0, 485.0, 482.0, 483.0, 484.0, 483.0, 483.0, 483.0, 483.0, 484.0, 485.0, 483.0],
      "WindowWidth": [1020.0, 1022.0, 1021.0, 1028.0, 1018.0, 1014.0, 1012.0, 1012.0, 1014.0, 1015.0, 1019.0, 1017.0, 1012.0, 1015.0, 1017.0, 1016.0, 1014.0, 1018.0, 1023.0, 1016.0, 1014.0, 1016.0, 1014.0, 1014.0, 1014.0, 1018.0, 1014.0, 1014.0, 1013.0, 1012.0, 1013.0, 1014.0, 1015.0, 1012.0, 1011.0, 1012.0, 1011.0, 1013.0, 1014.0, 1013.0, 1012.0, 1014.0, 1013.0, 1013.0, 1012.0, 1014.0, 1015.0, 1013.0, 1013.0, 1014.0, 1014.0, 1015.0, 1015.0, 1015.0, 1016.0, 1019.0, 1016.0, 1015.0, 1016.0, 1014.0, 1016.0, 1015.0, 1017.0, 1014.0, 1015.0, 1019.0, 1011.0, 1014.0, 1014.0, 1012.0, 1018.0, 1016.0, 1014.0, 1010.0, 1010.0, 1011.0, 1013.0, 1012.0, 1014.0, 1013.0, 1016.0, 1012.0, 1015.0, 1015.0, 1016.0, 1012.0, 1013.0, 1011.0, 1014.0, 1013.0, 1012.0, 1012.0, 1013.0, 1016.0, 1013.0, 1013.0, 1010.0, 1012.0, 1010.0, 1009.0, 1011.0, 1010.0, 1010.0, 1012.0, 1012.0, 1010.0, 1009.0, 1014.0, 1016.0, 1011.0, 1013.0, 1016.0, 1011.0, 1013.0, 1010.0, 1013.0, 1013.0, 1014.0, 1013.0, 1012.0, 1012.0, 1014.0, 1014.0, 1012.0, 1013.0, 1017.0, 1010.0, 1015.0, 1012.0, 1010.0, 1011.0, 1013.0, 1011.0, 1014.0, 1011.0, 1013.0, 1015.0, 1011.0, 1012.0, 1013.0, 1014.0, 1011.0, 1010.0, 1015.0, 1015.0, 1009.0, 1009.0, 1012.0, 1011.0, 1011.0, 1011.0, 1011.0, 1013.0, 1015.0, 1011.0]
    },
    "slices": {}
  }
}