{
  "AcquisitionMatrixPE": 64,
  "AcquisitionNumber": 1,
  "AcquisitionTime": "18:36:14.330000",
  "BandwidthPerPixelPhaseEncode": 40.064,
  "BaseResolution": 64,
  "BodyPartExamined": "BRAIN",
  "ConsistencyInfo": "N4_VD13D_LATEST_20130810",
  "ConversionSoftware": "dcm2niix",
  "ConversionSoftwareVersion": "v1.0.20191031",
  "DerivedVendorReportedEchoSpacing": 0.000780002,
  "DeviceSerialNumber": "67007",
  "DwellTime": 5.3e-06,
  "EchoTime": 0.03,
  "EchoTrainLength": 31,
  "EffectiveEchoSpacing": 0.000390001,
  "FlipAngle": 75,
  "ImageOrientationPatientDICOM": [0.999015, 0.0421427, 0.013895, -0.0401246, 0.991632, -0.122704],
  "ImageType": [
    "ORIGINAL",
    "PRIMARY",
    "M",
    "ND",
    "NORM",
    "MOSAIC"
],
  "ImagingFrequency": 123.211,
  "InPlanePhaseEncodingDirectionDICOM": "ROW",
  "InstitutionAddress": "Perth_Drive_100_London_Ontario_CA_N6A_5K8",
  "InstitutionName": "Robarts_Research_Institute",
  "InstitutionalDepartmentName": "CFMM",
  "MRAcquisitionType": "2D",
  "MagneticFieldStrength": 3,
  "Manufacturer": "Siemens",
  "ManufacturersModelName": "Prisma_fit",
  "Modality": "MR",
  "ParallelReductionFactorInPlane": 2,
  "PartialFourier": 1,
  "PatientPosition": "HFS",
  "PercentPhaseFOV": 100,
  "PhaseEncodingDirection": "i",
  "PhaseEncodingSteps": 63,
  "PhaseResolution": 1,
  "PixelBandwidth": 1475,
  "ProcedureStepDescription": "Owen_Naci",
  "ProtocolName": "taken",
  "PulseSequenceDetails": "%SiemensSeq%_ep2d_bold",
  "ReceiveCoilActiveElements": "HEA;HEP",
  "ReceiveCoilName": "Head_32",
  "ReconMatrixPE": 64,
  "RefLinesPE": 24,
  "RepetitionTime": 2,
  "SAR": 0.12868,
  "ScanOptions": "FS",
  "ScanningSequence": "EP",
  "SequenceName": "_epfid2d1_64",
  "SequenceVariant": "SK",
  "SeriesDescription": "taken",
  "SeriesNumber": 4,
  "ShimSetting": [5280, -6156, -3661, 356, 40, 51, 23, 32],
  "SliceThickness": 3,
  "SliceTiming": [1.92, 1.86, 1.8, 1.74, 1.68, 1.62, 1.56, 1.5, 1.44, 1.38, 1.32, 1.26, 1.2, 1.14, 1.08, 1.02, 0.96, 0.9, 0.84, 0.78, 0.72, 0.66, 0.6, 0.54, 0.48, 0.42, 0.36, 0.3, 0.24, 0.18, 0.12, 0.06, 0],
  "SoftwareVersions": "syngo_MR_D13D",
  "SpacingBetweenSlices": 3.75,
  "StationName": "AWP67007",
  "TaskName": "audio",
  "TotalReadoutTime": 0.0245701,
  "TxRefAmp": 288.366,
  "dcmmeta_affine": [
    [-2.9970450401306152, -0.12037375569343567, 0.07106153666973114, 95.74740600585938],
    [-0.1264280378818512, 2.974895715713501, -0.4575951397418976, -68.32610321044922],
    [0.04168485477566719, 0.3681113123893738, 3.7212977409362793, 21.92043685913086],
    [0.0, 0.0, 0.0, 1.0]
],
  "dcmmeta_reorient_transform": [
    [0.0, -1.0, 0.0, 63.0],
    [1.0, 0.0, 0.0, 0.0],
    [0.0, 0.0, 1.0, 0.0],
    [0.0, 0.0, 0.0, 1.0]
],
  "dcmmeta_shape": [64, 64, 33, 155],
  "dcmmeta_slice_dim": 2,
  "dcmmeta_version": 0.6,
  "global": {
    "const": {
      "AcquisitionMatrix": [0, 64, 64, 0],
      "AngioFlag": "N",
      "BitsAllocated": 16,
      "BitsStored": 12,
      "BodyPartExamined": "BRAIN",
      "Columns": 384,
      "EchoNumbers": 1,
      "EchoTime": 30.0,
      "EchoTrainLength": 31,
      "FlipAngle": 75.0,
      "HighBit": 11,
      "ImageOrientationPatient": [0.99901497733694, 0.04214267871957, 0.01389495184673, -0.0401245848044, 0.99163188903489, -0.1227037666226],
      "ImagePositionPatient": [-548.43124436411, -615.30411326106, 97.339679312838],
      "ImageType": [
        "ORIGINAL",
        "PRIMARY",
        "M",
        "ND",
        "NORM",
        "MOSAIC"
],
      "ImagedNucleus": "1H",
      "ImagingFrequency": 123.210986,
      "InPlanePhaseEncodingDirection": "ROW",
      "MRAcquisitionType": "2D",
      "MagneticFieldStrength": 3.0,
      "Manufacturer": "SIEMENS",
      "ManufacturerModelName": "Prisma_fit",
      "Modality": "MR",
      "NumberOfAverages": 1.0,
      "NumberOfPhaseEncodingSteps": 63,
      "PercentPhaseFieldOfView": 100.0,
      "PercentSampling": 100.0,
      "PerformedProcedureStepStartTime": "180215.790000",
      "PhotometricInterpretation": "MONOCHROME2",
      "PixelBandwidth": 1475.0,
      "PixelRepresentation": 0,
      "PixelSpacing": [3.0, 3.0],
      "ProtocolName": "taken",
      "RepetitionTime": 2000.0,
      "Rows": 384,
      "SAR": 0.12868043683394,
      "SamplesPerPixel": 1,
      "ScanOptions": "FS",
      "ScanningSequence": "EP",
      "SequenceName": "*epfid2d1_64",
      "SequenceVariant": "SK",
      "SeriesDescription": "taken",
      "SeriesNumber": 4,
      "SeriesTime": "183655.767000",
      "SliceLocation": 31.90456591705,
      "SliceThickness": 3.0,
      "SmallestImagePixelValue": 0,
      "SoftwareVersions": "syngo MR D13D",
      "SpacingBetweenSlices": 3.7499999908182,
      "SpecificCharacterSet": "ISO_IR 100",
      "StudyID": "1",
      "StudyTime": "180215.680000",
      "TimeOfLastCalibration": ["123723.000000", "123723.000000"],
      "TransmitCoilName": "Body",
      "VariableFlipAngleFlag": "N",
      "WindowCenterWidthExplanation": "Algo1",
      "dBdt": 0.0},
    "slices": {}
  },
  "time": {
    "samples": {
      "AcquisitionNumber": [1, 2, 3, 4, 5, 6, 7, 8, 9, 10, 11, 12, 13, 14, 15, 16, 17, 18, 19, 20, 21, 22, 23, 24, 25, 26, 27, 28, 29, 30, 31, 32, 33, 34, 35, 36, 37, 38, 39, 40, 41, 42, 43, 44, 45, 46, 47, 48, 49, 50, 51, 52, 53, 54, 55, 56, 57, 58, 59, 60, 61, 62, 63, 64, 65, 66, 67, 68, 69, 70, 71, 72, 73, 74, 75, 76, 77, 78, 79, 80, 81, 82, 83, 84, 85, 86, 87, 88, 89, 90, 91, 92, 93, 94, 95, 96, 97, 98, 99, 100, 101, 102, 103, 104, 105, 106, 107, 108, 109, 110, 111, 112, 113, 114, 115, 116, 117, 118, 119, 120, 121, 122, 123, 124, 125, 126, 127, 128, 129, 130, 131, 132, 133, 134, 135, 136, 137, 138, 139, 140, 141, 142, 143, 144, 145, 146, 147, 148, 149, 150, 151, 152, 153, 154, 155],
      "AcquisitionTime": ["183614.330000", "183616.330000", "183618.330000", "183620.330000", "183622.330000", "183624.330000", "183626.330000", "183628.330000", "183630.330000", "183632.330000", "183634.330000", "183636.330000", "183638.330000", "183640.330000", "183642.330000", "183644.330000", "183646.330000", "183648.330000", "183650.330000", "183652.330000", "183654.330000", "183656.330000", "183658.330000", "183700.330000", "183702.330000", "183704.330000", "183706.330000", "183708.330000", "183710.330000", "183712.330000", "183714.330000", "183716.330000", "183718.330000", "183720.330000", "183722.330000", "183724.330000", "183726.330000", "183728.330000", "183730.330000", "183732.330000", "183734.330000", "183736.330000", "183738.330000", "183740.330000", "183742.330000", "183744.330000", "183746.330000", "183748.330000", "183750.330000", "183752.330000", "183754.330000", "183756.330000", "183758.330000", "183800.330000", "183802.330000", "183804.330000", "183806.330000", "183808.330000", "183810.330000", "183812.330000", "183814.330000", "183816.330000", "183818.330000", "183820.330000", "183822.330000", "183824.330000", "183826.330000", "183828.330000", "183830.330000", "183832.330000", "183834.330000", "183836.330000", "183838.330000", "183840.330000", "183842.330000", "183844.330000", "183846.330000", "183848.330000", "183850.330000", "183852.330000", "183854.330000", "183856.330000", "183858.330000", "183900.330000", "183902.330000", "183904.330000", "183906.330000", "183908.330000", "183910.330000", "183912.330000", "183914.330000", "183916.330000", "183918.330000", "183920.330000", "183922.330000", "183924.330000", "183926.330000", "183928.330000", "183930.330000", "183932.330000", "183934.330000", "183936.330000", "183938.330000", "183940.330000", "183942.330000", "183944.330000", "183946.330000", "183948.330000", "183950.330000", "183952.330000", "183954.330000", "183956.330000", "183958.330000", "184000.330000", "184002.330000", "184004.330000", "184006.330000", "184008.330000", "184010.330000", "184012.330000", "184014.330000", "184016.330000", "184018.330000", "184020.330000", "184022.330000", "184024.330000", "184026.330000", "184028.330000", "184030.330000", "184032.330000", "184034.330000", "184036.330000", "184038.330000", "184040.330000", "184042.330000", "184044.330000", "184046.330000", "184048.330000", "184050.330000", "184052.330000", "184054.330000", "184056.330000", "184058.330000", "184100.330000", "184102.330000", "184104.330000", "184106.330000", "184108.330000", "184110.330000", "184112.330000", "184114.330000", "184116.330000", "184118.330000", "184120.330000", "184122.330000"],
      "ContentTime": ["183655.772000", "183655.784000", "183655.787000", "183655.790000", "183655.793000", "183655.796000", "183655.799000", "183655.802000", "183655.805000", "183655.808000", "183655.810000", "183655.813000", "183655.821000", "183655.823000", "183655.826000", "183655.829000", "183655.832000", "183655.835000", "183655.838000", "183655.842000", "183655.852000", "183735.765000", "183735.769000", "183735.772000", "183735.775000", "183735.778000", "183735.781000", "183735.784000", "183735.787000", "183735.790000", "183735.793000", "183735.796000", "183735.799000", "183735.802000", "183735.805000", "183735.809000", "183735.813000", "183735.817000", "183735.820000", "183735.823000", "183735.826000", "183815.765000", "183815.769000", "183815.772000", "183815.774000", "183815.777000", "183815.780000", "183815.783000", "183815.786000", "183815.789000", "183815.792000", "183815.795000", "183815.798000", "183815.801000", "183815.804000", "183815.807000", "183815.810000", "183815.813000", "183815.817000", "183815.820000", "183815.823000", "183855.765000", "183855.768000", "183855.771000", "183855.774000", "183855.777000", "183855.780000", "183855.783000", "183855.786000", "183855.790000", "183855.793000", "183855.796000", "183855.799000", "183855.802000", "183855.805000", "183855.808000", "183855.811000", "183855.814000", "183855.818000", "183855.821000", "183855.824000", "183915.764000", "183915.768000", "183915.771000", "183915.774000", "183915.777000", "183915.780000", "183915.783000", "183915.786000", "183915.789000", "183915.793000", "183955.764000", "183955.768000", "183955.771000", "183955.774000", "183955.777000", "183955.780000", "183955.783000", "183955.786000", "183955.789000", "183955.792000", "183955.795000", "183955.798000", "183955.802000", "183955.805000", "183955.808000", "183955.811000", "183955.814000", "183955.817000", "183955.820000", "183955.823000", "184035.766000", "184035.769000", "184035.772000", "184035.775000", "184035.778000", "184035.781000", "184035.784000", "184035.787000", "184035.790000", "184035.793000", "184035.796000", "184035.799000", "184035.802000", "184035.805000", "184035.808000", "184035.812000", "184035.815000", "184035.818000", "184035.821000", "184035.824000", "184115.765000", "184115.768000", "184115.772000", "184115.775000", "184115.778000", "184115.781000", "184115.784000", "184115.787000", "184115.790000", "184115.793000", "184115.796000", "184115.799000", "184115.802000", "184115.805000", "184115.808000", "184115.811000", "184115.814000", "184115.817000", "184115.820000", "184115.823000", "184123.115000", "184123.119000", "184123.122000", "184123.125000"],
      "InstanceCreationTime": ["183655.772000", "183655.784000", "183655.787000", "183655.790000", "183655.793000", "183655.796000", "183655.799000", "183655.802000", "183655.805000", "183655.808000", "183655.810000", "183655.813000", "183655.821000", "183655.823000", "183655.826000", "183655.829000", "183655.832000", "183655.835000", "183655.838000", "183655.842000", "183655.852000", "183735.765000", "183735.769000", "183735.772000", "183735.775000", "183735.778000", "183735.781000", "183735.784000", "183735.787000", "183735.790000", "183735.793000", "183735.796000", "183735.799000", "183735.802000", "183735.805000", "183735.809000", "183735.813000", "183735.817000", "183735.820000", "183735.823000", "183735.826000", "183815.765000", "183815.769000", "183815.772000", "183815.774000", "183815.777000", "183815.780000", "183815.783000", "183815.786000", "183815.789000", "183815.792000", "183815.795000", "183815.798000", "183815.801000", "183815.804000", "183815.807000", "183815.810000", "183815.813000", "183815.817000", "183815.820000", "183815.823000", "183855.765000", "183855.768000", "183855.771000", "183855.774000", "183855.777000", "183855.780000", "183855.783000", "183855.786000", "183855.790000", "183855.793000", "183855.796000", "183855.799000", "183855.802000", "183855.805000", "183855.808000", "183855.811000", "183855.814000", "183855.818000", "183855.821000", "183855.824000", "183915.764000", "183915.768000", "183915.771000", "183915.774000", "183915.777000", "183915.780000", "183915.783000", "183915.786000", "183915.789000", "183915.793000", "183955.764000", "183955.768000", "183955.771000", "183955.774000", "183955.777000", "183955.780000", "183955.783000", "183955.786000", "183955.789000", "183955.792000", "183955.795000", "183955.798000", "183955.802000", "183955.805000", "183955.808000", "183955.811000", "183955.814000", "183955.817000", "183955.820000", "183955.823000", "184035.766000", "184035.769000", "184035.772000", "184035.775000", "184035.778000", "184035.781000", "184035.784000", "184035.787000", "184035.790000", "184035.793000", "184035.796000", "184035.799000", "184035.802000", "184035.805000", "184035.808000", "184035.812000", "184035.815000", "184035.818000", "184035.821000", "184035.824000", "184115.765000", "184115.768000", "184115.772000", "184115.775000", "184115.778000", "184115.781000", "184115.784000", "184115.787000", "184115.790000", "184115.793000", "184115.796000", "184115.799000", "184115.802000", "184115.805000", "184115.808000", "184115.811000", "184115.814000", "184115.817000", "184115.820000", "184115.823000", "184123.115000", "184123.119000", "184123.122000", "184123.125000"],
      "InstanceNumber": [1, 2, 3, 4, 5, 6, 7, 8, 9, 10, 11, 12, 13, 14, 15, 16, 17, 18, 19, 20, 21, 22, 23, 24, 25, 26, 27, 28, 29, 30, 31, 32, 33, 34, 35, 36, 37, 38, 39, 40, 41, 42, 43, 44, 45, 46, 47, 48, 49, 50, 51, 52, 53, 54, 55, 56, 57, 58, 59, 60, 61, 62, 63, 64, 65, 66, 67, 68, 69, 70, 71, 72, 73, 74, 75, 76, 77, 78, 79, 80, 81, 82, 83, 84, 85, 86, 87, 88, 89, 90, 91, 92, 93, 94, 95, 96, 97, 98, 99, 100, 101, 102, 103, 104, 105, 106, 107, 108, 109, 110, 111, 112, 113, 114, 115, 116, 117, 118, 119, 120, 121, 122, 123, 124, 125, 126, 127, 128, 129, 130, 131, 132, 133, 134, 135, 136, 137, 138, 139, 140, 141, 142, 143, 144, 145, 146, 147, 148, 149, 150, 151, 152, 153, 154, 155],
      "LargestImagePixelValue": [1019, 1185, 998, 1004, 1001, 1124, 1126, 999, 1120, 982, 1103, 993, 1139, 996, 1001, 990, 1016, 985, 1080, 1016, 1098, 976, 1127, 981, 1153, 978, 1135, 992, 1037, 1053, 973, 1112, 976, 1040, 1046, 986, 1011, 995, 1006, 980, 980, 1166, 1012, 1061, 987, 985, 1118, 973, 1179, 986, 986, 1099, 982, 1066, 979, 1061, 981, 1057, 982, 989, 1068, 980, 1086, 1021, 974, 1156, 997, 1013, 987, 1214, 988, 1109, 994, 1011, 991, 1049, 983, 1102, 985, 1080, 998, 1048, 979, 1022, 994, 1010, 1024, 1006, 1155, 988, 987, 1010, 989, 1000, 1088, 1096, 980, 1023, 1026, 1020, 1097, 1014, 1006, 1070, 981, 1081, 995, 1018, 1069, 1005, 1085, 1002, 1105, 1004, 995, 1167, 1011, 1056, 1009, 1004, 1077, 983, 1008, 1061, 1000, 1004, 1032, 1188, 1000, 1024, 1073, 1009, 1118, 1021, 1058, 1016, 1003, 1156, 1009, 1026, 1002, 1104, 1000, 1098, 984, 1067, 1021, 1162, 1005, 1147, 1002, 1079, 1027, 1042, 1016],
      "WindowCenter": [487.0, 487.0, 486.0, 485.0, 484.0, 485.0, 486.0, 485.0, 486.0, 484.0, 485.0, 484.0, 485.0, 485.0, 485.0, 485.0, 485.0, 485.0, 485.0, 484.0, 485.0, 483.0, 485.0, 483.0, 486.0, 483.0, 486.0, 483.0, 484.0, 485.0, 484.0, 487.0, 484.0, 485.0, 485.0, 484.0, 485.0, 485.0, 486.0, 485.0, 485.0, 488.0, 486.0, 486.0, 485.0, 484.0, 486.0, 484.0, 486.0, 484.0, 485.0, 486.0, 485.0, 485.0, 485.0, 485.0, 485.0, 485.0, 485.0, 485.0, 487.0, 485.0, 487.0, 485.0, 485.0, 487.0, 485.0, 485.0, 485.0, 487.0, 484.0, 486.0, 484.0, 485.0, 485.0, 485.0, 485.0, 486.0, 485.0, 487.0, 486.0, 485.0, 484.0, 484.0, 484.0, 485.0, 485.0, 485.0, 486.0, 485.0, 485.0, 485.0, 485.0, 485.0, 487.0, 486.0, 485.0, 485.0, 485.0, 485.0, 485.0, 485.0, 484.0, 485.0, 484.0, 486.0, 485.0, 485.0, 486.0, 485.0, 485.0, 484.0, 484.0, 484.0, 484.0, 486.0, 483.0, 484.0, 483.0, 484.0, 485.0, 485.0, 485.0, 486.0, 485.0, 485.0, 485.0, 487.0, 484.0, 484.0, 485.0, 484.0, 485.0, 485.0, 484.0, 483.0, 483.0, 485.0, 483.0, 483.0, 483.0, 484.0, 483.0, 484.0, 483.0, 483.0, 483.0, 484.0, 483.0, 484.0, 482.0, 483.0, 483.0, 484.0, 483.0],
      "WindowWidth": [1019.0, 1019.0, 1017.0, 1015.0, 1014.0, 1015.0, 1016.0, 1015.0, 1016.0, 1013.0, 1015.0, 1012.0, 1015.0, 1015.0, 1014.0, 1014.0, 1014.0, 1015.0, 1015.0, 1014.0, 1014.0, 1012.0, 1015.0, 1012.0, 1017.0, 1012.0, 1016.0, 1012.0, 1013.0, 1015.0, 1013.0, 1017.0, 1013.0, 1015.0, 1015.0, 1014.0, 1015.0, 1015.0, 1016.0, 1015.0, 1015.0, 1020.0, 1017.0, 1017.0, 1015.0, 1014.0, 1017.0, 1013.0, 1016.0, 1013.0, 1015.0, 1016.0, 1015.0, 1016.0, 1015.0, 1014.0, 1015.0, 1015.0, 1015.0, 1015.0, 1018.0, 1016.0, 1018.0, 1016.0, 1015.0, 1018.0, 1015.0, 1015.0, 1016.0, 1019.0, 1014.0, 1016.0, 1014.0, 1015.0, 1015.0, 1015.0, 1015.0, 1017.0, 1016.0, 1018.0, 1016.0, 1015.0, 1013.0, 1013.0, 1013.0, 1014.0, 1014.0, 1014.0, 1016.0, 1014.0, 1015.0, 1016.0, 1016.0, 1016.0, 1018.0, 1016.0, 1014.0, 1014.0, 1015.0, 1014.0, 1015.0, 1014.0, 1014.0, 1015.0, 1014.0, 1016.0, 1015.0, 1015.0, 1016.0, 1015.0, 1015.0, 1013.0, 1013.0, 1014.0, 1013.0, 1016.0, 1010.0, 1013.0, 1011.0, 1013.0, 1014.0, 1014.0, 1015.0, 1017.0, 1014.0, 1016.0, 1014.0, 1017.0, 1013.0, 1014.0, 1015.0, 1014.0, 1015.0, 1015.0, 1013.0, 1012.0, 1011.0, 1015.0, 1011.0, 1011.0, 1011.0, 1013.0, 1011.0, 1012.0, 1010.0, 1011.0, 1012.0, 1012.0, 1011.0, 1012.0, 1009.0, 1010.0, 1011.0, 1012.0, 1010.0]
    },
    "slices": {}
  }
}