{
  "AcquisitionMatrixPE": 64,
  "AcquisitionNumber": 1,
  "AcquisitionTime": "13:24:30.660000",
  "BandwidthPerPixelPhaseEncode": 40.064,
  "BaseResolution": 64,
  "BodyPartExamined": "BRAIN",
  "ConsistencyInfo": "N4_VD13D_LATEST_20130810",
  "ConversionSoftware": "dcm2niix",
  "ConversionSoftwareVersion": "v1.0.20191031",
  "DerivedVendorReportedEchoSpacing": 0.000780002,
  "DeviceSerialNumber": "67007",
  "DwellTime": 5.3e-06,
  "EchoTime": 0.03,
  "EchoTrainLength": 31,
  "EffectiveEchoSpacing": 0.000390001,
  "FlipAngle": 75,
  "ImageOrientationPatientDICOM": [0.999163, 0.0403891, -0.00647688, -0.0401305, 0.998545, 0.0360291],
  "ImageType": [
    "ORIGINAL",
    "PRIMARY",
    "M",
    "ND",
    "NORM",
    "MOSAIC"
],
  "ImagingFrequency": 123.211,
  "InPlanePhaseEncodingDirectionDICOM": "ROW",
  "InstitutionAddress": "Perth_Drive_100_London_Ontario_CA_N6A_5K8",
  "InstitutionName": "Robarts-CFMM",
  "InstitutionalDepartmentName": "CFMM",
  "MRAcquisitionType": "2D",
  "MagneticFieldStrength": 3,
  "Manufacturer": "Siemens",
  "ManufacturersModelName": "Prisma_fit",
  "Modality": "MR",
  "ParallelReductionFactorInPlane": 2,
  "PartialFourier": 1,
  "PatientPosition": "HFS",
  "PercentPhaseFOV": 100,
  "PhaseEncodingDirection": "i",
  "PhaseEncodingSteps": 63,
  "PhaseResolution": 1,
  "PixelBandwidth": 1475,
  "ProcedureStepDescription": "Owen_Naci",
  "ProtocolName": "taken",
  "PulseSequenceDetails": "%SiemensSeq%_ep2d_bold",
  "ReceiveCoilActiveElements": "HEA;HEP",
  "ReceiveCoilName": "Head_32",
  "ReconMatrixPE": 64,
  "RefLinesPE": 24,
  "RepetitionTime": 2,
  "SAR": 0.121187,
  "ScanOptions": "FS",
  "ScanningSequence": "EP",
  "SequenceName": "_epfid2d1_64",
  "SequenceVariant": "SK",
  "SeriesDescription": "taken",
  "SeriesNumber": 11,
  "ShimSetting": [5234, -6081, -3885, 371, -4, 186, 75, -1],
  "SliceThickness": 3,
  "SliceTiming": [1.92, 1.86, 1.8, 1.74, 1.68, 1.62, 1.56, 1.5, 1.44, 1.38, 1.32, 1.26, 1.2, 1.14, 1.08, 1.02, 0.96, 0.9, 0.84, 0.78, 0.72, 0.66, 0.6, 0.54, 0.48, 0.42, 0.36, 0.3, 0.24, 0.18, 0.12, 0.06, 0],
  "SoftwareVersions": "syngo_MR_D13D",
  "SpacingBetweenSlices": 3.75,
  "StationName": "AWP67007",
  "TaskName": "audio",
  "TotalReadoutTime": 0.0245701,
  "TxRefAmp": 268.999,
  "dcmmeta_affine": [
    [-2.9974892139434814, -0.1203915998339653, -0.02970988303422928, 101.68151092529297],
    [-0.12116724252700806, 2.995634078979492, 0.1340213268995285, -70.62848663330078],
    [-0.01943063735961914, -0.10808729380369186, 3.7474865913391113, -21.562219619750977],
    [0.0, 0.0, 0.0, 1.0]
],
  "dcmmeta_reorient_transform": [
    [0.0, -1.0, 0.0, 63.0],
    [1.0, 0.0, 0.0, 0.0],
    [0.0, 0.0, 1.0, 0.0],
    [0.0, 0.0, 0.0, 1.0]
],
  "dcmmeta_shape": [64, 64, 33, 155],
  "dcmmeta_slice_dim": 2,
  "dcmmeta_version": 0.6,
  "global": {
    "const": {
      "AcquisitionMatrix": [0, 64, 64, 0],
      "AngioFlag": "N",
      "BitsAllocated": 16,
      "BitsStored": 12,
      "BodyPartExamined": "BRAIN",
      "Columns": 384,
      "EchoNumbers": 1,
      "EchoTime": 30.0,
      "EchoTrainLength": 31,
      "FlipAngle": 75.0,
      "HighBit": 11,
      "ImageOrientationPatient": [0.99916303583197, 0.04038908097244, -0.0064768792826, -0.0401305329621, 0.99854466323311, 0.03602909730837],
      "ImagePositionPatient": [-554.43244362836, -616.7846509019, -42.556783698562],
      "ImageType": [
        "ORIGINAL",
        "PRIMARY",
        "M",
        "ND",
        "NORM",
        "MOSAIC"
],
      "ImagedNucleus": "1H",
      "ImagingFrequency": 123.211107,
      "InPlanePhaseEncodingDirection": "ROW",
      "MRAcquisitionType": "2D",
      "MagneticFieldStrength": 3.0,
      "Manufacturer": "SIEMENS",
      "ManufacturerModelName": "Prisma_fit",
      "Modality": "MR",
      "NumberOfAverages": 1.0,
      "NumberOfPhaseEncodingSteps": 63,
      "PercentPhaseFieldOfView": 100.0,
      "PercentSampling": 100.0,
      "PerformedProcedureStepStartTime": "120140.640000",
      "PhotometricInterpretation": "MONOCHROME2",
      "PixelBandwidth": 1475.0,
      "PixelRepresentation": 0,
      "PixelSpacing": [3.0, 3.0],
      "ProtocolName": "taken",
      "RepetitionTime": 2000.0,
      "Rows": 384,
      "SAR": 0.12118677635295,
      "SamplesPerPixel": 1,
      "ScanOptions": "FS",
      "ScanningSequence": "EP",
      "SequenceName": "*epfid2d1_64",
      "SequenceVariant": "SK",
      "SeriesDescription": "taken",
      "SeriesNumber": 11,
      "SeriesTime": "132443.980000",
      "SliceLocation": -24.877546230105,
      "SliceThickness": 3.0,
      "SmallestImagePixelValue": 0,
      "SoftwareVersions": "syngo MR D13D",
      "SpacingBetweenSlices": 3.7500000199299,
      "SpecificCharacterSet": "ISO_IR 100",
      "StudyID": "1",
      "StudyTime": "120140.594000",
      "TimeOfLastCalibration": ["123723.000000", "123723.000000"],
      "TransmitCoilName": "Body",
      "VariableFlipAngleFlag": "N",
      "WindowCenterWidthExplanation": "Algo1",
      "dBdt": 0.0},
    "slices": {}
  },
  "time": {
    "samples": {
      "AcquisitionNumber": [1, 2, 3, 4, 5, 6, 7, 8, 9, 10, 11, 12, 13, 14, 15, 16, 17, 18, 19, 20, 21, 22, 23, 24, 25, 26, 27, 28, 29, 30, 31, 32, 33, 34, 35, 36, 37, 38, 39, 40, 41, 42, 43, 44, 45, 46, 47, 48, 49, 50, 51, 52, 53, 54, 55, 56, 57, 58, 59, 60, 61, 62, 63, 64, 65, 66, 67, 68, 69, 70, 71, 72, 73, 74, 75, 76, 77, 78, 79, 80, 81, 82, 83, 84, 85, 86, 87, 88, 89, 90, 91, 92, 93, 94, 95, 96, 97, 98, 99, 100, 101, 102, 103, 104, 105, 106, 107, 108, 109, 110, 111, 112, 113, 114, 115, 116, 117, 118, 119, 120, 121, 122, 123, 124, 125, 126, 127, 128, 129, 130, 131, 132, 133, 134, 135, 136, 137, 138, 139, 140, 141, 142, 143, 144, 145, 146, 147, 148, 149, 150, 151, 152, 153, 154, 155],
      "AcquisitionTime": ["132430.660000", "132432.660000", "132434.660000", "132436.660000", "132438.660000", "132440.660000", "132442.660000", "132444.660000", "132446.660000", "132448.660000", "132450.660000", "132452.660000", "132454.660000", "132456.660000", "132458.660000", "132500.660000", "132502.660000", "132504.660000", "132506.660000", "132508.660000", "132510.660000", "132512.660000", "132514.660000", "132516.660000", "132518.660000", "132520.660000", "132522.660000", "132524.660000", "132526.660000", "132528.660000", "132530.660000", "132532.660000", "132534.660000", "132536.660000", "132538.660000", "132540.660000", "132542.660000", "132544.660000", "132546.660000", "132548.660000", "132550.660000", "132552.660000", "132554.660000", "132556.660000", "132558.660000", "132600.660000", "132602.660000", "132604.660000", "132606.660000", "132608.660000", "132610.660000", "132612.660000", "132614.660000", "132616.660000", "132618.660000", "132620.660000", "132622.660000", "132624.660000", "132626.660000", "132628.660000", "132630.660000", "132632.660000", "132634.660000", "132636.660000", "132638.660000", "132640.660000", "132642.660000", "132644.660000", "132646.660000", "132648.660000", "132650.660000", "132652.660000", "132654.660000", "132656.660000", "132658.660000", "132700.660000", "132702.660000", "132704.660000", "132706.660000", "132708.660000", "132710.660000", "132712.660000", "132714.660000", "132716.660000", "132718.660000", "132720.660000", "132722.660000", "132724.660000", "132726.660000", "132728.660000", "132730.660000", "132732.660000", "132734.660000", "132736.660000", "132738.660000", "132740.660000", "132742.660000", "132744.660000", "132746.660000", "132748.660000", "132750.660000", "132752.660000", "132754.660000", "132756.660000", "132758.660000", "132800.660000", "132802.660000", "132804.660000", "132806.660000", "132808.660000", "132810.660000", "132812.660000", "132814.660000", "132816.660000", "132818.660000", "132820.660000", "132822.660000", "132824.660000", "132826.660000", "132828.660000", "132830.660000", "132832.660000", "132834.660000", "132836.660000", "132838.660000", "132840.660000", "132842.660000", "132844.660000", "132846.660000", "132848.660000", "132850.660000", "132852.660000", "132854.660000", "132856.660000", "132858.660000", "132900.660000", "132902.660000", "132904.660000", "132906.660000", "132908.660000", "132910.660000", "132912.660000", "132914.660000", "132916.660000", "132918.660000", "132920.660000", "132922.660000", "132924.660000", "132926.660000", "132928.660000", "132930.660000", "132932.660000", "132934.660000", "132936.660000", "132938.660000"],
      "ContentTime": ["132443.985000", "132443.990000", "132443.992000", "132443.995000", "132443.998000", "132523.978000", "132523.981000", "132523.984000", "132523.987000", "132523.990000", "132523.993000", "132523.996000", "132523.998000", "132524.002000", "132524.005000", "132524.008000", "132524.011000", "132524.014000", "132524.017000", "132524.020000", "132524.028000", "132524.031000", "132524.034000", "132524.037000", "132524.040000", "132603.977000", "132603.980000", "132603.983000", "132603.986000", "132603.989000", "132603.992000", "132603.994000", "132603.997000", "132604.001000", "132604.004000", "132604.007000", "132604.010000", "132604.013000", "132604.016000", "132604.019000", "132604.021000", "132604.024000", "132604.027000", "132604.030000", "132604.033000", "132643.976000", "132643.979000", "132643.982000", "132643.985000", "132643.988000", "132643.990000", "132643.993000", "132643.996000", "132644.000000", "132644.003000", "132644.006000", "132644.008000", "132644.011000", "132644.014000", "132644.016000", "132644.019000", "132644.022000", "132644.025000", "132644.028000", "132644.031000", "132723.978000", "132723.981000", "132723.984000", "132723.987000", "132723.990000", "132723.992000", "132723.995000", "132723.998000", "132724.002000", "132724.005000", "132724.008000", "132724.010000", "132724.013000", "132724.016000", "132724.019000", "132724.022000", "132724.025000", "132724.028000", "132724.031000", "132724.034000", "132803.979000", "132803.982000", "132803.985000", "132803.988000", "132803.991000", "132803.994000", "132803.996000", "132804.000000", "132804.003000", "132804.006000", "132804.009000", "132804.011000", "132804.014000", "132804.017000", "132804.020000", "132804.023000", "132804.026000", "132804.029000", "132804.031000", "132804.034000", "132843.978000", "132843.981000", "132843.984000", "132843.987000", "132843.990000", "132843.993000", "132843.995000", "132843.998000", "132844.002000", "132844.005000", "132844.008000", "132844.011000", "132844.014000", "132844.017000", "132844.020000", "132844.023000", "132844.026000", "132844.028000", "132844.031000", "132844.034000", "132923.978000", "132923.981000", "132923.984000", "132923.987000", "132923.990000", "132923.993000", "132923.996000", "132924.000000", "132924.002000", "132924.005000", "132924.008000", "132924.011000", "132924.014000", "132924.017000", "132924.020000", "132924.023000", "132924.025000", "132924.028000", "132924.030000", "132924.033000", "132942.858000", "132942.862000", "132942.866000", "132942.869000", "132942.872000", "132942.875000", "132942.878000", "132942.880000", "132942.883000", "132942.887000"],
      "InstanceCreationTime": ["132443.985000", "132443.990000", "132443.992000", "132443.995000", "132443.998000", "132523.978000", "132523.981000", "132523.984000", "132523.987000", "132523.990000", "132523.993000", "132523.996000", "132523.998000", "132524.002000", "132524.005000", "132524.008000", "132524.011000", "132524.014000", "132524.017000", "132524.020000", "132524.028000", "132524.031000", "132524.034000", "132524.037000", "132524.040000", "132603.977000", "132603.980000", "132603.983000", "132603.986000", "132603.989000", "132603.992000", "132603.994000", "132603.997000", "132604.001000", "132604.004000", "132604.007000", "132604.010000", "132604.013000", "132604.016000", "132604.019000", "132604.021000", "132604.024000", "132604.027000", "132604.030000", "132604.033000", "132643.976000", "132643.979000", "132643.982000", "132643.985000", "132643.988000", "132643.990000", "132643.993000", "132643.996000", "132644.000000", "132644.003000", "132644.006000", "132644.008000", "132644.011000", "132644.014000", "132644.016000", "132644.019000", "132644.022000", "132644.025000", "132644.028000", "132644.031000", "132723.978000", "132723.981000", "132723.984000", "132723.987000", "132723.990000", "132723.992000", "132723.995000", "132723.998000", "132724.002000", "132724.005000", "132724.008000", "132724.010000", "132724.013000", "132724.016000", "132724.019000", "132724.022000", "132724.025000", "132724.028000", "132724.031000", "132724.034000", "132803.979000", "132803.982000", "132803.985000", "132803.988000", "132803.991000", "132803.994000", "132803.996000", "132804.000000", "132804.003000", "132804.006000", "132804.009000", "132804.011000", "132804.014000", "132804.017000", "132804.020000", "132804.023000", "132804.026000", "132804.029000", "132804.031000", "132804.034000", "132843.978000", "132843.981000", "132843.984000", "132843.987000", "132843.990000", "132843.993000", "132843.995000", "132843.998000", "132844.002000", "132844.005000", "132844.008000", "132844.011000", "132844.014000", "132844.017000", "132844.020000", "132844.023000", "132844.026000", "132844.028000", "132844.031000", "132844.034000", "132923.978000", "132923.981000", "132923.984000", "132923.987000", "132923.990000", "132923.993000", "132923.996000", "132924.000000", "132924.002000", "132924.005000", "132924.008000", "132924.011000", "132924.014000", "132924.017000", "132924.020000", "132924.023000", "132924.025000", "132924.028000", "132924.030000", "132924.033000", "132942.858000", "132942.862000", "132942.866000", "132942.869000", "132942.872000", "132942.875000", "132942.878000", "132942.880000", "132942.883000", "132942.887000"],
      "InstanceNumber": [1, 2, 3, 4, 5, 6, 7, 8, 9, 10, 11, 12, 13, 14, 15, 16, 17, 18, 19, 20, 21, 22, 23, 24, 25, 26, 27, 28, 29, 30, 31, 32, 33, 34, 35, 36, 37, 38, 39, 40, 41, 42, 43, 44, 45, 46, 47, 48, 49, 50, 51, 52, 53, 54, 55, 56, 57, 58, 59, 60, 61, 62, 63, 64, 65, 66, 67, 68, 69, 70, 71, 72, 73, 74, 75, 76, 77, 78, 79, 80, 81, 82, 83, 84, 85, 86, 87, 88, 89, 90, 91, 92, 93, 94, 95, 96, 97, 98, 99, 100, 101, 102, 103, 104, 105, 106, 107, 108, 109, 110, 111, 112, 113, 114, 115, 116, 117, 118, 119, 120, 121, 122, 123, 124, 125, 126, 127, 128, 129, 130, 131, 132, 133, 134, 135, 136, 137, 138, 139, 140, 141, 142, 143, 144, 145, 146, 147, 148, 149, 150, 151, 152, 153, 154, 155],
      "LargestImagePixelValue": [843, 865, 823, 799, 796, 774, 792, 730, 882, 863, 860, 843, 947, 779, 802, 833, 826, 869, 827, 844, 775, 770, 782, 786, 923, 830, 811, 826, 766, 828, 807, 902, 870, 838, 833, 819, 735, 1078, 948, 746, 970, 744, 797, 809, 875, 842, 817, 956, 808, 754, 735, 980, 963, 789, 807, 984, 995, 918, 945, 838, 787, 765, 768, 891, 915, 871, 784, 753, 749, 861, 828, 842, 850, 799, 769, 737, 842, 835, 846, 966, 850, 827, 755, 828, 833, 795, 801, 811, 855, 883, 868, 794, 857, 819, 781, 756, 778, 807, 784, 789, 847, 800, 830, 778, 741, 805, 1016, 1095, 821, 821, 751, 790, 937, 881, 804, 855, 794, 849, 866, 871, 833, 818, 765, 746, 900, 1023, 804, 934, 916, 951, 940, 893, 837, 816, 844, 793, 794, 793, 1058, 789, 827, 745, 753, 798, 832, 1121, 761, 765, 801, 1075, 935, 811, 774, 752, 763],
      "WindowCenter": [425.0, 423.0, 422.0, 421.0, 421.0, 422.0, 423.0, 423.0, 426.0, 426.0, 424.0, 422.0, 423.0, 421.0, 422.0, 422.0, 422.0, 422.0, 421.0, 422.0, 422.0, 423.0, 424.0, 423.0, 424.0, 422.0, 423.0, 423.0, 423.0, 424.0, 423.0, 425.0, 424.0, 422.0, 422.0, 423.0, 424.0, 427.0, 424.0, 422.0, 423.0, 422.0, 423.0, 424.0, 424.0, 423.0, 423.0, 425.0, 423.0, 424.0, 425.0, 429.0, 427.0, 424.0, 423.0, 423.0, 422.0, 421.0, 422.0, 421.0, 422.0, 425.0, 423.0, 424.0, 423.0, 422.0, 421.0, 421.0, 422.0, 423.0, 422.0, 421.0, 421.0, 422.0, 422.0, 423.0, 425.0, 424.0, 423.0, 423.0, 423.0, 422.0, 423.0, 425.0, 424.0, 423.0, 423.0, 423.0, 424.0, 424.0, 423.0, 422.0, 422.0, 424.0, 423.0, 423.0, 422.0, 424.0, 424.0, 423.0, 423.0, 422.0, 423.0, 423.0, 424.0, 425.0, 426.0, 425.0, 422.0, 423.0, 423.0, 424.0, 424.0, 423.0, 422.0, 424.0, 422.0, 423.0, 424.0, 423.0, 422.0, 423.0, 425.0, 425.0, 426.0, 426.0, 423.0, 423.0, 421.0, 421.0, 420.0, 419.0, 419.0, 419.0, 420.0, 421.0, 421.0, 421.0, 422.0, 419.0, 420.0, 420.0, 422.0, 423.0, 422.0, 424.0, 421.0, 422.0, 424.0, 426.0, 424.0, 423.0, 423.0, 423.0, 424.0],
      "WindowWidth": [896.0, 891.0, 890.0, 888.0, 889.0, 890.0, 892.0, 891.0, 898.0, 897.0, 894.0, 891.0, 891.0, 888.0, 889.0, 890.0, 890.0, 890.0, 889.0, 890.0, 890.0, 892.0, 893.0, 893.0, 892.0, 890.0, 891.0, 892.0, 892.0, 893.0, 892.0, 895.0, 893.0, 891.0, 890.0, 892.0, 894.0, 898.0, 893.0, 890.0, 892.0, 890.0, 892.0, 893.0, 893.0, 892.0, 892.0, 895.0, 892.0, 894.0, 895.0, 903.0, 899.0, 893.0, 891.0, 892.0, 889.0, 888.0, 889.0, 889.0, 891.0, 897.0, 892.0, 893.0, 891.0, 890.0, 888.0, 888.0, 891.0, 892.0, 889.0, 889.0, 888.0, 890.0, 891.0, 893.0, 895.0, 893.0, 892.0, 892.0, 891.0, 891.0, 893.0, 895.0, 893.0, 892.0, 892.0, 893.0, 894.0, 892.0, 891.0, 889.0, 890.0, 893.0, 892.0, 891.0, 891.0, 893.0, 893.0, 892.0, 891.0, 891.0, 892.0, 892.0, 894.0, 897.0, 897.0, 894.0, 889.0, 891.0, 892.0, 893.0, 894.0, 891.0, 891.0, 893.0, 891.0, 892.0, 893.0, 892.0, 891.0, 892.0, 896.0, 896.0, 897.0, 896.0, 891.0, 891.0, 889.0, 888.0, 885.0, 884.0, 884.0, 884.0, 887.0, 888.0, 888.0, 888.0, 889.0, 886.0, 886.0, 887.0, 890.0, 892.0, 891.0, 892.0, 888.0, 890.0, 893.0, 896.0, 893.0, 892.0, 892.0, 892.0, 894.0]
    },
    "slices": {}
  }
}