{
  "AcquisitionMatrixPE": 64,
  "AcquisitionNumber": 1,
  "AcquisitionTime": "16:29:19.775000",
  "BandwidthPerPixelPhaseEncode": 40.064,
  "BaseResolution": 64,
  "BodyPartExamined": "BRAIN",
  "ConsistencyInfo": "N4_VD13D_LATEST_20130810",
  "ConversionSoftware": "dcm2niix",
  "ConversionSoftwareVersion": "v1.0.20191031",
  "DerivedVendorReportedEchoSpacing": 0.000780002,
  "DeviceSerialNumber": "67007",
  "DwellTime": 5.3e-06,
  "EchoTime": 0.03,
  "EchoTrainLength": 31,
  "EffectiveEchoSpacing": 0.000390001,
  "FlipAngle": 75,
  "ImageOrientationPatientDICOM": [0.999984, -0.00335999, 0.00465511, 0.00349061, 0.999592, -0.0283416],
  "ImageType": [
    "ORIGINAL",
    "PRIMARY",
    "M",
    "ND",
    "NORM",
    "MOSAIC"
],
  "ImagingFrequency": 123.211,
  "InPlanePhaseEncodingDirectionDICOM": "ROW",
  "InstitutionAddress": "Perth_Drive_100_London_Ontario_CA_N6A_5K8",
  "InstitutionName": "Robarts_Research_Institute",
  "InstitutionalDepartmentName": "CFMM",
  "MRAcquisitionType": "2D",
  "MagneticFieldStrength": 3,
  "Manufacturer": "Siemens",
  "ManufacturersModelName": "Prisma_fit",
  "Modality": "MR",
  "ParallelReductionFactorInPlane": 2,
  "PartialFourier": 1,
  "PatientPosition": "HFS",
  "PercentPhaseFOV": 100,
  "PhaseEncodingDirection": "i",
  "PhaseEncodingSteps": 63,
  "PhaseResolution": 1,
  "PixelBandwidth": 1475,
  "ProcedureStepDescription": "Owen_Naci",
  "ProtocolName": "taken",
  "PulseSequenceDetails": "%SiemensSeq%_ep2d_bold",
  "ReceiveCoilActiveElements": "HEA;HEP",
  "ReceiveCoilName": "Head_32",
  "ReconMatrixPE": 64,
  "RefLinesPE": 24,
  "RepetitionTime": 2,
  "SAR": 0.132708,
  "ScanOptions": "FS",
  "ScanningSequence": "EP",
  "SequenceName": "_epfid2d1_64",
  "SequenceVariant": "SK",
  "SeriesDescription": "taken",
  "SeriesNumber": 7,
  "ShimSetting": [5255, -6234, -3772, 399, 16, -109, -48, 23],
  "SliceThickness": 3,
  "SliceTiming": [1.92, 1.86, 1.8, 1.74, 1.68, 1.62, 1.56, 1.5, 1.44, 1.38, 1.32, 1.26, 1.2, 1.14, 1.08, 1.02, 0.96, 0.9, 0.84, 0.78, 0.72, 0.66, 0.6, 0.54, 0.48, 0.42, 0.36, 0.3, 0.24, 0.18, 0.12, 0.06, 0],
  "SoftwareVersions": "syngo_MR_D13D",
  "SpacingBetweenSlices": 3.75,
  "StationName": "AWP67007",
  "TaskName": "audio",
  "TotalReadoutTime": 0.0245701,
  "TxRefAmp": 325.354,
  "dcmmeta_affine": [
    [-2.999950647354126, 0.010471844114363194, 0.017092429101467133, 92.07388305664062],
    [0.010079982690513134, 2.99877667427063, -0.10634028911590576, -77.77133178710938],
    [0.013965321704745293, 0.0850248858332634, 3.74845290184021, -17.93732452392578],
    [0.0, 0.0, 0.0, 1.0]
],
  "dcmmeta_reorient_transform": [
    [0.0, -1.0, 0.0, 63.0],
    [1.0, 0.0, 0.0, 0.0],
    [0.0, 0.0, 1.0, 0.0],
    [0.0, 0.0, 0.0, 1.0]
],
  "dcmmeta_shape": [64, 64, 33, 155],
  "dcmmeta_slice_dim": 2,
  "dcmmeta_version": 0.6,
  "global": {
    "const": {
      "AcquisitionMatrix": [0, 64, 64, 0],
      "AngioFlag": "N",
      "BitsAllocated": 16,
      "BitsStored": 12,
      "BodyPartExamined": "BRAIN",
      "Columns": 384,
      "EchoNumbers": 1,
      "EchoTime": 30.0,
      "EchoTrainLength": 31,
      "FlipAngle": 75.0,
      "HighBit": 11,
      "ImageOrientationPatient": [0.99998352007274, -0.003359994191, 0.00465510708477, 0.00349061483045, 0.99959220068844, -0.0283416289396],
      "ImagePositionPatient": [-574.4011940676, -589.34305374555, -1.2112263068027],
      "ImageType": [
        "ORIGINAL",
        "PRIMARY",
        "M",
        "ND",
        "NORM",
        "MOSAIC"
],
      "ImagedNucleus": "1H",
      "ImagingFrequency": 123.211158,
      "InPlanePhaseEncodingDirection": "ROW",
      "MRAcquisitionType": "2D",
      "MagneticFieldStrength": 3.0,
      "Manufacturer": "SIEMENS",
      "ManufacturerModelName": "Prisma_fit",
      "Modality": "MR",
      "NumberOfAverages": 1.0,
      "NumberOfPhaseEncodingSteps": 63,
      "PercentPhaseFieldOfView": 100.0,
      "PercentSampling": 100.0,
      "PerformedProcedureStepStartTime": "154514.560000",
      "PhotometricInterpretation": "MONOCHROME2",
      "PixelBandwidth": 1475.0,
      "PixelRepresentation": 0,
      "PixelSpacing": [3.0, 3.0],
      "ProtocolName": "taken",
      "RepetitionTime": 2000.0,
      "Rows": 384,
      "SAR": 0.13270753409921,
      "SamplesPerPixel": 1,
      "ScanOptions": "FS",
      "ScanningSequence": "EP",
      "SequenceName": "*epfid2d1_64",
      "SequenceVariant": "SK",
      "SeriesDescription": "taken",
      "SeriesNumber": 7,
      "SeriesTime": "163015.397000",
      "SliceLocation": -15.304860107223,
      "SliceThickness": 3.0,
      "SmallestImagePixelValue": 0,
      "SoftwareVersions": "syngo MR D13D",
      "SpacingBetweenSlices": 3.7500000314416,
      "SpecificCharacterSet": "ISO_IR 100",
      "StudyID": "1",
      "StudyTime": "154514.455000",
      "TimeOfLastCalibration": ["123723.000000", "123723.000000"],
      "TransmitCoilName": "Body",
      "VariableFlipAngleFlag": "N",
      "WindowCenterWidthExplanation": "Algo1",
      "dBdt": 0.0},
    "slices": {}
  },
  "time": {
    "samples": {
      "AcquisitionNumber": [1, 2, 3, 4, 5, 6, 7, 8, 9, 10, 11, 12, 13, 14, 15, 16, 17, 18, 19, 20, 21, 22, 23, 24, 25, 26, 27, 28, 29, 30, 31, 32, 33, 34, 35, 36, 37, 38, 39, 40, 41, 42, 43, 44, 45, 46, 47, 48, 49, 50, 51, 52, 53, 54, 55, 56, 57, 58, 59, 60, 61, 62, 63, 64, 65, 66, 67, 68, 69, 70, 71, 72, 73, 74, 75, 76, 77, 78, 79, 80, 81, 82, 83, 84, 85, 86, 87, 88, 89, 90, 91, 92, 93, 94, 95, 96, 97, 98, 99, 100, 101, 102, 103, 104, 105, 106, 107, 108, 109, 110, 111, 112, 113, 114, 115, 116, 117, 118, 119, 120, 121, 122, 123, 124, 125, 126, 127, 128, 129, 130, 131, 132, 133, 134, 135, 136, 137, 138, 139, 140, 141, 142, 143, 144, 145, 146, 147, 148, 149, 150, 151, 152, 153, 154, 155],
      "AcquisitionTime": ["162919.775000", "162921.775000", "162923.775000", "162925.775000", "162927.775000", "162929.775000", "162931.775000", "162933.775000", "162935.775000", "162937.775000", "162939.775000", "162941.775000", "162943.775000", "162945.775000", "162947.775000", "162949.775000", "162951.775000", "162953.775000", "162955.775000", "162957.775000", "162959.775000", "163001.775000", "163003.775000", "163005.775000", "163007.775000", "163009.775000", "163011.775000", "163013.775000", "163015.775000", "163017.775000", "163019.775000", "163021.775000", "163023.775000", "163025.775000", "163027.775000", "163029.775000", "163031.775000", "163033.775000", "163035.775000", "163037.775000", "163039.775000", "163041.775000", "163043.775000", "163045.775000", "163047.775000", "163049.775000", "163051.775000", "163053.775000", "163055.775000", "163057.775000", "163059.775000", "163101.775000", "163103.775000", "163105.775000", "163107.775000", "163109.775000", "163111.775000", "163113.775000", "163115.775000", "163117.775000", "163119.775000", "163121.775000", "163123.775000", "163125.775000", "163127.775000", "163129.775000", "163131.775000", "163133.775000", "163135.775000", "163137.775000", "163139.775000", "163141.775000", "163143.775000", "163145.775000", "163147.775000", "163149.775000", "163151.775000", "163153.775000", "163155.775000", "163157.775000", "163159.775000", "163201.775000", "163203.775000", "163205.775000", "163207.775000", "163209.775000", "163211.775000", "163213.775000", "163215.775000", "163217.775000", "163219.775000", "163221.775000", "163223.775000", "163225.775000", "163227.775000", "163229.775000", "163231.775000", "163233.775000", "163235.775000", "163237.775000", "163239.775000", "163241.775000", "163243.775000", "163245.775000", "163247.775000", "163249.775000", "163251.775000", "163253.775000", "163255.775000", "163257.775000", "163259.775000", "163301.775000", "163303.775000", "163305.775000", "163307.775000", "163309.775000", "163311.775000", "163313.775000", "163315.775000", "163317.775000", "163319.775000", "163321.775000", "163323.775000", "163325.775000", "163327.775000", "163329.775000", "163331.775000", "163333.775000", "163335.775000", "163337.775000", "163339.775000", "163341.775000", "163343.775000", "163345.775000", "163347.775000", "163349.775000", "163351.775000", "163353.775000", "163355.775000", "163357.775000", "163359.775000", "163401.775000", "163403.775000", "163405.775000", "163407.775000", "163409.775000", "163411.775000", "163413.775000", "163415.775000", "163417.775000", "163419.775000", "163421.775000", "163423.775000", "163425.775000", "163427.775000"],
      "ContentTime": ["163015.401000", "163015.405000", "163015.408000", "163015.410000", "163015.413000", "163015.416000", "163015.419000", "163015.422000", "163015.425000", "163015.428000", "163015.431000", "163015.434000", "163015.436000", "163015.439000", "163015.442000", "163015.445000", "163015.447000", "163015.451000", "163015.454000", "163015.456000", "163015.459000", "163015.462000", "163015.465000", "163015.468000", "163015.471000", "163015.474000", "163015.477000", "163015.480000", "163055.395000", "163055.399000", "163055.402000", "163055.405000", "163055.407000", "163055.410000", "163055.413000", "163055.416000", "163055.419000", "163055.422000", "163055.424000", "163055.427000", "163055.430000", "163055.433000", "163055.436000", "163055.440000", "163055.442000", "163055.445000", "163055.448000", "163055.451000", "163135.395000", "163135.398000", "163135.401000", "163135.404000", "163135.406000", "163135.409000", "163135.412000", "163135.415000", "163135.418000", "163135.421000", "163135.424000", "163135.427000", "163135.429000", "163135.432000", "163135.435000", "163135.438000", "163135.441000", "163135.444000", "163135.447000", "163135.450000", "163215.395000", "163215.398000", "163215.401000", "163215.404000", "163215.407000", "163215.410000", "163215.413000", "163215.416000", "163215.418000", "163215.421000", "163215.424000", "163215.427000", "163215.430000", "163215.433000", "163215.436000", "163215.439000", "163215.441000", "163215.444000", "163215.447000", "163215.450000", "163255.395000", "163255.398000", "163255.401000", "163255.404000", "163255.407000", "163255.410000", "163255.413000", "163255.416000", "163255.419000", "163255.421000", "163255.424000", "163255.427000", "163255.430000", "163255.433000", "163255.436000", "163255.439000", "163255.442000", "163255.444000", "163255.447000", "163255.450000", "163315.394000", "163315.397000", "163315.400000", "163315.403000", "163315.406000", "163315.409000", "163315.412000", "163315.415000", "163315.417000", "163315.420000", "163355.394000", "163355.397000", "163355.400000", "163355.403000", "163355.406000", "163355.409000", "163355.412000", "163355.415000", "163355.417000", "163355.420000", "163355.423000", "163355.426000", "163355.429000", "163355.432000", "163355.435000", "163355.437000", "163355.440000", "163355.443000", "163355.446000", "163355.449000", "163428.017000", "163428.020000", "163428.023000", "163428.032000", "163428.036000", "163428.038000", "163428.041000", "163428.044000", "163428.048000", "163428.051000", "163428.055000", "163428.060000", "163428.063000", "163428.065000", "163428.068000", "163428.071000", "163428.074000"],
      "InstanceCreationTime": ["163015.401000", "163015.405000", "163015.408000", "163015.410000", "163015.413000", "163015.416000", "163015.419000", "163015.422000", "163015.425000", "163015.428000", "163015.431000", "163015.434000", "163015.436000", "163015.439000", "163015.442000", "163015.445000", "163015.447000", "163015.451000", "163015.454000", "163015.456000", "163015.459000", "163015.462000", "163015.465000", "163015.468000", "163015.471000", "163015.474000", "163015.477000", "163015.480000", "163055.395000", "163055.399000", "163055.402000", "163055.405000", "163055.407000", "163055.410000", "163055.413000", "163055.416000", "163055.419000", "163055.422000", "163055.424000", "163055.427000", "163055.430000", "163055.433000", "163055.436000", "163055.440000", "163055.442000", "163055.445000", "163055.448000", "163055.451000", "163135.395000", "163135.398000", "163135.401000", "163135.404000", "163135.406000", "163135.409000", "163135.412000", "163135.415000", "163135.418000", "163135.421000", "163135.424000", "163135.427000", "163135.429000", "163135.432000", "163135.435000", "163135.438000", "163135.441000", "163135.444000", "163135.447000", "163135.450000", "163215.395000", "163215.398000", "163215.401000", "163215.404000", "163215.407000", "163215.410000", "163215.413000", "163215.416000", "163215.418000", "163215.421000", "163215.424000", "163215.427000", "163215.430000", "163215.433000", "163215.436000", "163215.439000", "163215.441000", "163215.444000", "163215.447000", "163215.450000", "163255.395000", "163255.398000", "163255.401000", "163255.404000", "163255.407000", "163255.410000", "163255.413000", "163255.416000", "163255.419000", "163255.421000", "163255.424000", "163255.427000", "163255.430000", "163255.433000", "163255.436000", "163255.439000", "163255.442000", "163255.444000", "163255.447000", "163255.450000", "163315.394000", "163315.397000", "163315.400000", "163315.403000", "163315.406000", "163315.409000", "163315.412000", "163315.415000", "163315.417000", "163315.420000", "163355.394000", "163355.397000", "163355.400000", "163355.403000", "163355.406000", "163355.409000", "163355.412000", "163355.415000", "163355.417000", "163355.420000", "163355.423000", "163355.426000", "163355.429000", "163355.432000", "163355.435000", "163355.437000", "163355.440000", "163355.443000", "163355.446000", "163355.449000", "163428.017000", "163428.020000", "163428.023000", "163428.032000", "163428.036000", "163428.038000", "163428.041000", "163428.044000", "163428.048000", "163428.051000", "163428.055000", "163428.060000", "163428.063000", "163428.065000", "163428.068000", "163428.071000", "163428.074000"],
      "InstanceNumber": [1, 2, 3, 4, 5, 6, 7, 8, 9, 10, 11, 12, 13, 14, 15, 16, 17, 18, 19, 20, 21, 22, 23, 24, 25, 26, 27, 28, 29, 30, 31, 32, 33, 34, 35, 36, 37, 38, 39, 40, 41, 42, 43, 44, 45, 46, 47, 48, 49, 50, 51, 52, 53, 54, 55, 56, 57, 58, 59, 60, 61, 62, 63, 64, 65, 66, 67, 68, 69, 70, 71, 72, 73, 74, 75, 76, 77, 78, 79, 80, 81, 82, 83, 84, 85, 86, 87, 88, 89, 90, 91, 92, 93, 94, 95, 96, 97, 98, 99, 100, 101, 102, 103, 104, 105, 106, 107, 108, 109, 110, 111, 112, 113, 114, 115, 116, 117, 118, 119, 120, 121, 122, 123, 124, 125, 126, 127, 128, 129, 130, 131, 132, 133, 134, 135, 136, 137, 138, 139, 140, 141, 142, 143, 144, 145, 146, 147, 148, 149, 150, 151, 152, 153, 154, 155],
      "LargestImagePixelValue": [1042, 960, 981, 895, 904, 931, 991, 1043, 998, 1287, 979, 909, 934, 1013, 1012, 918, 960, 915, 900, 899, 914, 944, 1067, 1229, 1289, 1322, 965, 930, 932, 921, 927, 957, 1012, 935, 934, 927, 924, 962, 966, 921, 925, 918, 920, 930, 1002, 940, 930, 1055, 945, 925, 916, 919, 928, 922, 939, 912, 1084, 1159, 1087, 1033, 920, 963, 948, 919, 915, 951, 924, 931, 915, 997, 969, 912, 922, 1043, 975, 997, 913, 918, 918, 982, 946, 1061, 958, 995, 929, 1165, 927, 933, 945, 957, 993, 961, 905, 924, 921, 946, 923, 931, 949, 968, 1534, 971, 977, 949, 984, 1025, 1103, 913, 1120, 902, 907, 922, 1102, 1056, 976, 938, 931, 1033, 995, 952, 1017, 1132, 918, 921, 915, 1021, 1022, 932, 929, 919, 1091, 1182, 970, 922, 1003, 1015, 968, 1006, 1212, 982, 991, 960, 912, 1019, 1167, 1021, 919, 923, 1080, 950, 1026, 926, 950, 923, 904],
      "WindowCenter": [502.0, 500.0, 500.0, 498.0, 498.0, 500.0, 501.0, 501.0, 503.0, 507.0, 499.0, 498.0, 499.0, 501.0, 502.0, 501.0, 502.0, 501.0, 502.0, 504.0, 504.0, 504.0, 504.0, 504.0, 503.0, 506.0, 499.0, 496.0, 497.0, 499.0, 500.0, 500.0, 501.0, 500.0, 500.0, 500.0, 501.0, 502.0, 502.0, 502.0, 502.0, 502.0, 501.0, 501.0, 502.0, 501.0, 502.0, 504.0, 503.0, 503.0, 503.0, 502.0, 503.0, 503.0, 503.0, 502.0, 503.0, 503.0, 500.0, 500.0, 498.0, 499.0, 500.0, 501.0, 501.0, 502.0, 501.0, 501.0, 502.0, 503.0, 502.0, 501.0, 501.0, 502.0, 500.0, 501.0, 500.0, 500.0, 500.0, 502.0, 503.0, 511.0, 506.0, 504.0, 502.0, 504.0, 501.0, 502.0, 501.0, 500.0, 500.0, 500.0, 500.0, 500.0, 500.0, 501.0, 501.0, 502.0, 502.0, 502.0, 510.0, 505.0, 500.0, 500.0, 503.0, 504.0, 503.0, 500.0, 502.0, 500.0, 500.0, 501.0, 502.0, 501.0, 500.0, 500.0, 501.0, 502.0, 504.0, 501.0, 502.0, 502.0, 498.0, 497.0, 498.0, 499.0, 500.0, 500.0, 500.0, 499.0, 501.0, 501.0, 497.0, 495.0, 497.0, 498.0, 498.0, 500.0, 508.0, 502.0, 501.0, 502.0, 501.0, 502.0, 503.0, 502.0, 500.0, 500.0, 501.0, 499.0, 500.0, 499.0, 499.0, 499.0, 499.0],
      "WindowWidth": [1046.0, 1041.0, 1041.0, 1039.0, 1038.0, 1041.0, 1043.0, 1042.0, 1047.0, 1053.0, 1039.0, 1038.0, 1039.0, 1043.0, 1045.0, 1044.0, 1045.0, 1044.0, 1045.0, 1050.0, 1050.0, 1049.0, 1048.0, 1048.0, 1047.0, 1054.0, 1040.0, 1033.0, 1036.0, 1039.0, 1041.0, 1042.0, 1043.0, 1042.0, 1042.0, 1042.0, 1043.0, 1046.0, 1046.0, 1045.0, 1045.0, 1045.0, 1043.0, 1043.0, 1044.0, 1043.0, 1046.0, 1048.0, 1047.0, 1047.0, 1047.0, 1046.0, 1047.0, 1047.0, 1047.0, 1045.0, 1047.0, 1047.0, 1041.0, 1040.0, 1038.0, 1040.0, 1042.0, 1043.0, 1044.0, 1045.0, 1044.0, 1044.0, 1045.0, 1047.0, 1045.0, 1044.0, 1044.0, 1045.0, 1042.0, 1043.0, 1042.0, 1042.0, 1042.0, 1045.0, 1047.0, 1063.0, 1053.0, 1049.0, 1045.0, 1048.0, 1044.0, 1044.0, 1043.0, 1041.0, 1042.0, 1041.0, 1041.0, 1042.0, 1042.0, 1043.0, 1044.0, 1044.0, 1045.0, 1045.0, 1059.0, 1054.0, 1041.0, 1041.0, 1046.0, 1048.0, 1047.0, 1041.0, 1044.0, 1041.0, 1042.0, 1044.0, 1045.0, 1043.0, 1040.0, 1041.0, 1043.0, 1046.0, 1049.0, 1044.0, 1045.0, 1044.0, 1039.0, 1037.0, 1038.0, 1039.0, 1042.0, 1043.0, 1041.0, 1041.0, 1043.0, 1042.0, 1035.0, 1032.0, 1035.0, 1037.0, 1039.0, 1041.0, 1057.0, 1044.0, 1044.0, 1044.0, 1044.0, 1045.0, 1046.0, 1044.0, 1041.0, 1042.0, 1043.0, 1040.0, 1041.0, 1039.0, 1041.0, 1040.0, 1040.0]
    },
    "slices": {}
  }
}