{
  "AcquisitionMatrixPE": 64,
  "AcquisitionNumber": 1,
  "AcquisitionTime": "17:39:27.200000",
  "BandwidthPerPixelPhaseEncode": 40.064,
  "BaseResolution": 64,
  "BodyPartExamined": "BRAIN",
  "ConsistencyInfo": "N4_VD13D_LATEST_20130810",
  "ConversionSoftware": "dcm2niix",
  "ConversionSoftwareVersion": "v1.0.20191031",
  "DerivedVendorReportedEchoSpacing": 0.000780002,
  "DeviceSerialNumber": "67007",
  "DwellTime": 5.3e-06,
  "EchoTime": 0.03,
  "EchoTrainLength": 31,
  "EffectiveEchoSpacing": 0.000390001,
  "FlipAngle": 75,
  "ImageOrientationPatientDICOM": [0.999984, -0.00335999, 0.00465511, 0.00349061, 0.999592, -0.0283416],
  "ImageType": [
    "ORIGINAL",
    "PRIMARY",
    "M",
    "ND",
    "NORM",
    "MOSAIC"
],
  "ImagingFrequency": 123.211,
  "InPlanePhaseEncodingDirectionDICOM": "ROW",
  "InstitutionAddress": "Perth_Drive_100_London_Ontario_CA_N6A_5K8",
  "InstitutionName": "Robarts_Research_Institute",
  "InstitutionalDepartmentName": "CFMM",
  "MRAcquisitionType": "2D",
  "MagneticFieldStrength": 3,
  "Manufacturer": "Siemens",
  "ManufacturersModelName": "Prisma_fit",
  "Modality": "MR",
  "ParallelReductionFactorInPlane": 2,
  "PartialFourier": 1,
  "PatientPosition": "HFS",
  "PercentPhaseFOV": 100,
  "PhaseEncodingDirection": "i",
  "PhaseEncodingSteps": 63,
  "PhaseResolution": 1,
  "PixelBandwidth": 1475,
  "ProcedureStepDescription": "Owen_Naci",
  "ProtocolName": "taken_recovery",
  "PulseSequenceDetails": "%SiemensSeq%_ep2d_bold",
  "ReceiveCoilActiveElements": "HEA;HEP",
  "ReceiveCoilName": "Head_32",
  "ReconMatrixPE": 64,
  "RefLinesPE": 24,
  "RepetitionTime": 2,
  "SAR": 0.132708,
  "ScanOptions": "FS",
  "ScanningSequence": "EP",
  "SequenceName": "_epfid2d1_64",
  "SequenceVariant": "SK",
  "SeriesDescription": "taken_recovery",
  "SeriesNumber": 20,
  "ShimSetting": [5255, -6234, -3772, 399, 16, -109, -48, 23],
  "SliceThickness": 3,
  "SliceTiming": [1.92, 1.86, 1.8, 1.74, 1.68, 1.62, 1.56, 1.5, 1.44, 1.38, 1.32, 1.26, 1.2, 1.14, 1.08, 1.02, 0.96, 0.9, 0.84, 0.78, 0.72, 0.66, 0.6, 0.54, 0.48, 0.42, 0.36, 0.3, 0.24, 0.18, 0.12, 0.06, 0],
  "SoftwareVersions": "syngo_MR_D13D",
  "SpacingBetweenSlices": 3.75,
  "StationName": "AWP67007",
  "TaskName": "audiorecovery",
  "TotalReadoutTime": 0.0245701,
  "TxRefAmp": 325.354,
  "dcmmeta_affine": [
    [-2.999950647354126, 0.010471844114363194, 0.017092429101467133, 92.07388305664062],
    [0.010079982690513134, 2.99877667427063, -0.10634028911590576, -77.77133178710938],
    [0.013965321704745293, 0.0850248858332634, 3.74845290184021, -17.93732452392578],
    [0.0, 0.0, 0.0, 1.0]
],
  "dcmmeta_reorient_transform": [
    [0.0, -1.0, 0.0, 63.0],
    [1.0, 0.0, 0.0, 0.0],
    [0.0, 0.0, 1.0, 0.0],
    [0.0, 0.0, 0.0, 1.0]
],
  "dcmmeta_shape": [64, 64, 33, 155],
  "dcmmeta_slice_dim": 2,
  "dcmmeta_version": 0.6,
  "global": {
    "const": {
      "AcquisitionMatrix": [0, 64, 64, 0],
      "AngioFlag": "N",
      "BitsAllocated": 16,
      "BitsStored": 12,
      "BodyPartExamined": "BRAIN",
      "Columns": 384,
      "EchoNumbers": 1,
      "EchoTime": 30.0,
      "EchoTrainLength": 31,
      "FlipAngle": 75.0,
      "HighBit": 11,
      "ImageOrientationPatient": [0.99998352007274, -0.003359994191, 0.00465510708477, 0.00349061483045, 0.99959220068844, -0.0283416289396],
      "ImagePositionPatient": [-574.4011940676, -589.34305374555, -1.2112263068027],
      "ImageType": [
        "ORIGINAL",
        "PRIMARY",
        "M",
        "ND",
        "NORM",
        "MOSAIC"
],
      "ImagedNucleus": "1H",
      "ImagingFrequency": 123.211176,
      "InPlanePhaseEncodingDirection": "ROW",
      "MRAcquisitionType": "2D",
      "MagneticFieldStrength": 3.0,
      "Manufacturer": "SIEMENS",
      "ManufacturerModelName": "Prisma_fit",
      "Modality": "MR",
      "NumberOfAverages": 1.0,
      "NumberOfPhaseEncodingSteps": 63,
      "PercentPhaseFieldOfView": 100.0,
      "PercentSampling": 100.0,
      "PerformedProcedureStepStartTime": "154514.560000",
      "PhotometricInterpretation": "MONOCHROME2",
      "PixelBandwidth": 1475.0,
      "PixelRepresentation": 0,
      "PixelSpacing": [3.0, 3.0],
      "ProtocolName": "taken_recovery",
      "RepetitionTime": 2000.0,
      "Rows": 384,
      "SAR": 0.13270753409921,
      "SamplesPerPixel": 1,
      "ScanOptions": "FS",
      "ScanningSequence": "EP",
      "SequenceName": "*epfid2d1_64",
      "SequenceVariant": "SK",
      "SeriesDescription": "taken_recovery",
      "SeriesNumber": 20,
      "SeriesTime": "173935.398000",
      "SliceLocation": -15.304860107223,
      "SliceThickness": 3.0,
      "SmallestImagePixelValue": 0,
      "SoftwareVersions": "syngo MR D13D",
      "SpacingBetweenSlices": 3.7500000314416,
      "SpecificCharacterSet": "ISO_IR 100",
      "StudyID": "1",
      "StudyTime": "154514.455000",
      "TimeOfLastCalibration": ["123723.000000", "123723.000000"],
      "TransmitCoilName": "Body",
      "VariableFlipAngleFlag": "N",
      "WindowCenterWidthExplanation": "Algo1",
      "dBdt": 0.0},
    "slices": {}
  },
  "time": {
    "samples": {
      "AcquisitionNumber": [1, 2, 3, 4, 5, 6, 7, 8, 9, 10, 11, 12, 13, 14, 15, 16, 17, 18, 19, 20, 21, 22, 23, 24, 25, 26, 27, 28, 29, 30, 31, 32, 33, 34, 35, 36, 37, 38, 39, 40, 41, 42, 43, 44, 45, 46, 47, 48, 49, 50, 51, 52, 53, 54, 55, 56, 57, 58, 59, 60, 61, 62, 63, 64, 65, 66, 67, 68, 69, 70, 71, 72, 73, 74, 75, 76, 77, 78, 79, 80, 81, 82, 83, 84, 85, 86, 87, 88, 89, 90, 91, 92, 93, 94, 95, 96, 97, 98, 99, 100, 101, 102, 103, 104, 105, 106, 107, 108, 109, 110, 111, 112, 113, 114, 115, 116, 117, 118, 119, 120, 121, 122, 123, 124, 125, 126, 127, 128, 129, 130, 131, 132, 133, 134, 135, 136, 137, 138, 139, 140, 141, 142, 143, 144, 145, 146, 147, 148, 149, 150, 151, 152, 153, 154, 155],
      "AcquisitionTime": ["173927.200000", "173929.200000", "173931.200000", "173933.200000", "173935.200000", "173937.200000", "173939.200000", "173941.200000", "173943.200000", "173945.200000", "173947.200000", "173949.200000", "173951.200000", "173953.200000", "173955.200000", "173957.200000", "173959.200000", "174001.200000", "174003.200000", "174005.200000", "174007.200000", "174009.200000", "174011.200000", "174013.200000", "174015.200000", "174017.200000", "174019.200000", "174021.200000", "174023.200000", "174025.200000", "174027.200000", "174029.200000", "174031.200000", "174033.200000", "174035.200000", "174037.200000", "174039.200000", "174041.200000", "174043.200000", "174045.200000", "174047.200000", "174049.202500", "174051.202500", "174053.202500", "174055.202500", "174057.202500", "174059.202500", "174101.202500", "174103.202500", "174105.202500", "174107.202500", "174109.202500", "174111.202500", "174113.202500", "174115.202500", "174117.202500", "174119.202500", "174121.202500", "174123.202500", "174125.202500", "174127.202500", "174129.202500", "174131.202500", "174133.202500", "174135.202500", "174137.202500", "174139.202500", "174141.202500", "174143.202500", "174145.202500", "174147.202500", "174149.202500", "174151.202500", "174153.202500", "174155.202500", "174157.202500", "174159.202500", "174201.202500", "174203.202500", "174205.202500", "174207.202500", "174209.202500", "174211.202500", "174213.202500", "174215.202500", "174217.202500", "174219.202500", "174221.202500", "174223.202500", "174225.202500", "174227.202500", "174229.202500", "174231.202500", "174233.202500", "174235.202500", "174237.202500", "174239.202500", "174241.202500", "174243.202500", "174245.202500", "174247.202500", "174249.202500", "174251.202500", "174253.202500", "174255.202500", "174257.202500", "174259.202500", "174301.202500", "174303.202500", "174305.202500", "174307.202500", "174309.202500", "174311.202500", "174313.202500", "174315.202500", "174317.202500", "174319.202500", "174321.202500", "174323.202500", "174325.202500", "174327.202500", "174329.202500", "174331.202500", "174333.202500", "174335.202500", "174337.202500", "174339.202500", "174341.202500", "174343.202500", "174345.202500", "174347.202500", "174349.202500", "174351.202500", "174353.202500", "174355.202500", "174357.202500", "174359.202500", "174401.202500", "174403.202500", "174405.202500", "174407.202500", "174409.202500", "174411.202500", "174413.202500", "174415.202500", "174417.202500", "174419.202500", "174421.202500", "174423.202500", "174425.202500", "174427.202500", "174429.202500", "174431.202500", "174433.202500", "174435.202500"],
      "ContentTime": ["173935.402000", "173935.406000", "173935.409000", "173935.412000", "174015.395000", "174015.407000", "174015.410000", "174015.412000", "174015.415000", "174015.418000", "174015.421000", "174015.424000", "174015.426000", "174015.429000", "174015.432000", "174015.435000", "174015.438000", "174015.440000", "174015.443000", "174015.446000", "174015.448000", "174015.455000", "174015.458000", "174015.461000", "174055.395000", "174055.398000", "174055.401000", "174055.404000", "174055.407000", "174055.410000", "174055.412000", "174055.415000", "174055.418000", "174055.421000", "174055.424000", "174055.427000", "174055.430000", "174055.433000", "174055.435000", "174055.438000", "174055.441000", "174055.444000", "174055.447000", "174055.450000", "174135.395000", "174135.399000", "174135.401000", "174135.404000", "174135.407000", "174135.410000", "174135.413000", "174135.416000", "174135.418000", "174135.421000", "174135.424000", "174135.427000", "174135.430000", "174135.432000", "174135.435000", "174135.438000", "174135.441000", "174135.443000", "174135.447000", "174135.450000", "174215.394000", "174215.397000", "174215.400000", "174215.403000", "174215.406000", "174215.409000", "174215.412000", "174215.415000", "174215.417000", "174215.420000", "174215.423000", "174215.426000", "174215.429000", "174215.432000", "174215.434000", "174215.437000", "174215.440000", "174215.443000", "174215.446000", "174215.449000", "174255.395000", "174255.398000", "174255.401000", "174255.404000", "174255.407000", "174255.410000", "174255.413000", "174255.416000", "174255.418000", "174255.421000", "174255.424000", "174255.427000", "174255.430000", "174255.433000", "174255.436000", "174255.439000", "174255.442000", "174255.444000", "174255.447000", "174255.450000", "174315.395000", "174315.398000", "174315.401000", "174315.404000", "174315.407000", "174315.410000", "174315.412000", "174315.415000", "174315.418000", "174315.421000", "174355.394000", "174355.397000", "174355.400000", "174355.403000", "174355.406000", "174355.409000", "174355.413000", "174355.416000", "174355.419000", "174355.422000", "174355.425000", "174355.428000", "174355.431000", "174355.435000", "174355.438000", "174355.441000", "174355.444000", "174355.447000", "174355.450000", "174355.453000", "174435.395000", "174435.399000", "174435.402000", "174435.405000", "174435.407000", "174435.410000", "174435.413000", "174435.416000", "174435.419000", "174435.422000", "174435.425000", "174435.439000", "174435.443000", "174435.446000", "174435.449000", "174435.452000", "174435.455000", "174435.458000", "174435.461000", "174435.464000", "174435.923000"],
      "InstanceCreationTime": ["173935.402000", "173935.406000", "173935.409000", "173935.412000", "174015.395000", "174015.407000", "174015.410000", "174015.412000", "174015.415000", "174015.418000", "174015.421000", "174015.424000", "174015.426000", "174015.429000", "174015.432000", "174015.435000", "174015.438000", "174015.440000", "174015.443000", "174015.446000", "174015.448000", "174015.455000", "174015.458000", "174015.461000", "174055.395000", "174055.398000", "174055.401000", "174055.404000", "174055.407000", "174055.410000", "174055.412000", "174055.415000", "174055.418000", "174055.421000", "174055.424000", "174055.427000", "174055.430000", "174055.433000", "174055.435000", "174055.438000", "174055.441000", "174055.444000", "174055.447000", "174055.450000", "174135.395000", "174135.399000", "174135.401000", "174135.404000", "174135.407000", "174135.410000", "174135.413000", "174135.416000", "174135.418000", "174135.421000", "174135.424000", "174135.427000", "174135.430000", "174135.432000", "174135.435000", "174135.438000", "174135.441000", "174135.443000", "174135.447000", "174135.450000", "174215.394000", "174215.397000", "174215.400000", "174215.403000", "174215.406000", "174215.409000", "174215.412000", "174215.415000", "174215.417000", "174215.420000", "174215.423000", "174215.426000", "174215.429000", "174215.432000", "174215.434000", "174215.437000", "174215.440000", "174215.443000", "174215.446000", "174215.449000", "174255.395000", "174255.398000", "174255.401000", "174255.404000", "174255.407000", "174255.410000", "174255.413000", "174255.416000", "174255.418000", "174255.421000", "174255.424000", "174255.427000", "174255.430000", "174255.433000", "174255.436000", "174255.439000", "174255.442000", "174255.444000", "174255.447000", "174255.450000", "174315.395000", "174315.398000", "174315.401000", "174315.404000", "174315.407000", "174315.410000", "174315.412000", "174315.415000", "174315.418000", "174315.421000", "174355.394000", "174355.397000", "174355.400000", "174355.403000", "174355.406000", "174355.409000", "174355.413000", "174355.416000", "174355.419000", "174355.422000", "174355.425000", "174355.428000", "174355.431000", "174355.435000", "174355.438000", "174355.441000", "174355.444000", "174355.447000", "174355.450000", "174355.453000", "174435.395000", "174435.399000", "174435.402000", "174435.405000", "174435.407000", "174435.410000", "174435.413000", "174435.416000", "174435.419000", "174435.422000", "174435.425000", "174435.439000", "174435.443000", "174435.446000", "174435.449000", "174435.452000", "174435.455000", "174435.458000", "174435.461000", "174435.464000", "174435.923000"],
      "InstanceNumber": [1, 2, 3, 4, 5, 6, 7, 8, 9, 10, 11, 12, 13, 14, 15, 16, 17, 18, 19, 20, 21, 22, 23, 24, 25, 26, 27, 28, 29, 30, 31, 32, 33, 34, 35, 36, 37, 38, 39, 40, 41, 42, 43, 44, 45, 46, 47, 48, 49, 50, 51, 52, 53, 54, 55, 56, 57, 58, 59, 60, 61, 62, 63, 64, 65, 66, 67, 68, 69, 70, 71, 72, 73, 74, 75, 76, 77, 78, 79, 80, 81, 82, 83, 84, 85, 86, 87, 88, 89, 90, 91, 92, 93, 94, 95, 96, 97, 98, 99, 100, 101, 102, 103, 104, 105, 106, 107, 108, 109, 110, 111, 112, 113, 114, 115, 116, 117, 118, 119, 120, 121, 122, 123, 124, 125, 126, 127, 128, 129, 130, 131, 132, 133, 134, 135, 136, 137, 138, 139, 140, 141, 142, 143, 144, 145, 146, 147, 148, 149, 150, 151, 152, 153, 154, 155],
      "LargestImagePixelValue": [1026, 1707, 1559, 1273, 1691, 962, 965, 955, 961, 976, 1071, 976, 1170, 1428, 980, 1654, 975, 1216, 966, 1425, 1534, 965, 1098, 1208, 971, 1003, 1381, 976, 955, 958, 971, 1279, 956, 1002, 1486, 1023, 997, 1149, 1007, 1047, 1097, 956, 1015, 1305, 957, 1620, 1016, 953, 957, 958, 1576, 957, 1183, 957, 958, 959, 959, 1010, 1001, 1420, 955, 959, 974, 961, 978, 964, 963, 965, 1236, 1292, 963, 1030, 959, 1354, 965, 1279, 962, 959, 1185, 1321, 1426, 1255, 1471, 1278, 1204, 1642, 958, 951, 1246, 958, 962, 1004, 957, 1093, 957, 959, 1215, 958, 958, 955, 1088, 959, 1338, 954, 953, 968, 1141, 1365, 1518, 958, 1448, 1560, 1008, 953, 1323, 949, 1063, 1170, 949, 1291, 958, 961, 1271, 962, 963, 968, 951, 1458, 967, 973, 1483, 1293, 963, 1183, 973, 979, 968, 978, 974, 985, 969, 979, 983, 989, 1235, 1450, 1507, 1374, 1446, 974, 975, 975, 969, 978, 1219],
      "WindowCenter": [509.0, 514.0, 510.0, 508.0, 510.0, 504.0, 504.0, 504.0, 505.0, 505.0, 507.0, 505.0, 508.0, 510.0, 505.0, 510.0, 504.0, 507.0, 505.0, 509.0, 509.0, 501.0, 505.0, 508.0, 502.0, 505.0, 508.0, 503.0, 503.0, 503.0, 505.0, 509.0, 504.0, 505.0, 510.0, 503.0, 503.0, 506.0, 502.0, 503.0, 504.0, 502.0, 505.0, 508.0, 504.0, 509.0, 504.0, 505.0, 504.0, 504.0, 509.0, 503.0, 505.0, 503.0, 504.0, 504.0, 503.0, 503.0, 505.0, 507.0, 503.0, 504.0, 506.0, 505.0, 506.0, 505.0, 505.0, 506.0, 509.0, 509.0, 505.0, 506.0, 505.0, 510.0, 505.0, 509.0, 506.0, 505.0, 509.0, 509.0, 510.0, 507.0, 509.0, 507.0, 505.0, 507.0, 501.0, 502.0, 504.0, 502.0, 502.0, 504.0, 503.0, 505.0, 504.0, 503.0, 506.0, 503.0, 504.0, 504.0, 507.0, 505.0, 510.0, 505.0, 506.0, 507.0, 509.0, 511.0, 510.0, 504.0, 508.0, 508.0, 504.0, 504.0, 507.0, 503.0, 505.0, 506.0, 503.0, 507.0, 503.0, 503.0, 506.0, 502.0, 503.0, 505.0, 505.0, 509.0, 503.0, 504.0, 509.0, 505.0, 502.0, 505.0, 502.0, 502.0, 502.0, 504.0, 504.0, 504.0, 503.0, 505.0, 507.0, 507.0, 509.0, 510.0, 510.0, 508.0, 507.0, 503.0, 503.0, 503.0, 503.0, 505.0, 508.0],
      "WindowWidth": [1060.0, 1066.0, 1059.0, 1055.0, 1058.0, 1049.0, 1049.0, 1049.0, 1051.0, 1051.0, 1055.0, 1051.0, 1055.0, 1059.0, 1052.0, 1059.0, 1050.0, 1053.0, 1050.0, 1057.0, 1058.0, 1045.0, 1050.0, 1056.0, 1046.0, 1051.0, 1055.0, 1048.0, 1046.0, 1048.0, 1050.0, 1058.0, 1049.0, 1051.0, 1059.0, 1047.0, 1048.0, 1051.0, 1045.0, 1046.0, 1048.0, 1046.0, 1051.0, 1056.0, 1049.0, 1057.0, 1049.0, 1050.0, 1049.0, 1050.0, 1057.0, 1047.0, 1050.0, 1047.0, 1049.0, 1049.0, 1047.0, 1047.0, 1052.0, 1053.0, 1048.0, 1050.0, 1053.0, 1052.0, 1053.0, 1051.0, 1052.0, 1053.0, 1057.0, 1056.0, 1051.0, 1053.0, 1051.0, 1058.0, 1052.0, 1056.0, 1053.0, 1052.0, 1058.0, 1058.0, 1059.0, 1054.0, 1055.0, 1052.0, 1050.0, 1052.0, 1044.0, 1045.0, 1048.0, 1046.0, 1046.0, 1050.0, 1048.0, 1051.0, 1049.0, 1048.0, 1052.0, 1047.0, 1049.0, 1050.0, 1055.0, 1052.0, 1058.0, 1052.0, 1053.0, 1055.0, 1058.0, 1060.0, 1060.0, 1049.0, 1055.0, 1056.0, 1048.0, 1049.0, 1054.0, 1048.0, 1051.0, 1052.0, 1048.0, 1054.0, 1047.0, 1047.0, 1051.0, 1046.0, 1047.0, 1051.0, 1051.0, 1057.0, 1048.0, 1049.0, 1056.0, 1050.0, 1045.0, 1051.0, 1045.0, 1045.0, 1046.0, 1049.0, 1048.0, 1050.0, 1048.0, 1051.0, 1054.0, 1055.0, 1058.0, 1059.0, 1058.0, 1055.0, 1052.0, 1046.0, 1047.0, 1046.0, 1047.0, 1051.0, 1055.0]
    },
    "slices": {}
  }
}