{
  "AcquisitionMatrixPE": 64,
  "AcquisitionNumber": 1,
  "AcquisitionTime": "17:45:15.122500",
  "BandwidthPerPixelPhaseEncode": 40.064,
  "BaseResolution": 64,
  "BodyPartExamined": "BRAIN",
  "ConsistencyInfo": "N4_VD13D_LATEST_20130810",
  "ConversionSoftware": "dcm2niix",
  "ConversionSoftwareVersion": "v1.0.20191031",
  "DerivedVendorReportedEchoSpacing": 0.000780002,
  "DeviceSerialNumber": "67007",
  "DwellTime": 5.3e-06,
  "EchoTime": 0.03,
  "EchoTrainLength": 31,
  "EffectiveEchoSpacing": 0.000390001,
  "FlipAngle": 75,
  "ImageOrientationPatientDICOM": [0.999984, -0.00335999, 0.00465511, 0.00349061, 0.999592, -0.0283416],
  "ImageType": [
    "ORIGINAL",
    "PRIMARY",
    "M",
    "ND",
    "NORM",
    "MOSAIC"
],
  "ImagingFrequency": 123.211,
  "InPlanePhaseEncodingDirectionDICOM": "ROW",
  "InstitutionAddress": "Perth_Drive_100_London_Ontario_CA_N6A_5K8",
  "InstitutionName": "Robarts_Research_Institute",
  "InstitutionalDepartmentName": "CFMM",
  "MRAcquisitionType": "2D",
  "MagneticFieldStrength": 3,
  "Manufacturer": "Siemens",
  "ManufacturersModelName": "Prisma_fit",
  "Modality": "MR",
  "ParallelReductionFactorInPlane": 2,
  "PartialFourier": 1,
  "PatientPosition": "HFS",
  "PercentPhaseFOV": 100,
  "PhaseEncodingDirection": "i",
  "PhaseEncodingSteps": 63,
  "PhaseResolution": 1,
  "PixelBandwidth": 1475,
  "ProcedureStepDescription": "Owen_Naci",
  "ProtocolName": "Resting_State_recovery",
  "PulseSequenceDetails": "%SiemensSeq%_ep2d_bold",
  "ReceiveCoilActiveElements": "HEA;HEP",
  "ReceiveCoilName": "Head_32",
  "ReconMatrixPE": 64,
  "RefLinesPE": 24,
  "RepetitionTime": 2,
  "SAR": 0.132954,
  "ScanOptions": "FS",
  "ScanningSequence": "EP",
  "SequenceName": "_epfid2d1_64",
  "SequenceVariant": "SK",
  "SeriesDescription": "Resting_State_recovery",
  "SeriesNumber": 22,
  "ShimSetting": [5255, -6234, -3772, 399, 16, -109, -48, 23],
  "SliceThickness": 3,
  "SliceTiming": [1.92, 1.86, 1.8, 1.74, 1.68, 1.62, 1.56, 1.5, 1.44, 1.38, 1.32, 1.26, 1.2, 1.14, 1.08, 1.02, 0.96, 0.9, 0.84, 0.78, 0.72, 0.66, 0.6, 0.54, 0.48, 0.42, 0.36, 0.3, 0.24, 0.18, 0.12, 0.06, 0],
  "SoftwareVersions": "syngo_MR_D13D",
  "SpacingBetweenSlices": 3.75,
  "StationName": "AWP67007",
  "TaskName": "restrecovery",
  "TotalReadoutTime": 0.0245701,
  "TxRefAmp": 325.354,
  "dcmmeta_affine": [
    [-2.999950647354126, 0.010471844114363194, 0.017092429101467133, 92.07388305664062],
    [0.010079982690513134, 2.99877667427063, -0.10634028911590576, -77.77133178710938],
    [0.013965321704745293, 0.0850248858332634, 3.74845290184021, -17.93732452392578],
    [0.0, 0.0, 0.0, 1.0]
],
  "dcmmeta_reorient_transform": [
    [0.0, -1.0, 0.0, 63.0],
    [1.0, 0.0, 0.0, 0.0],
    [0.0, 0.0, 1.0, 0.0],
    [0.0, 0.0, 0.0, 1.0]
],
  "dcmmeta_shape": [64, 64, 33, 256],
  "dcmmeta_slice_dim": 2,
  "dcmmeta_version": 0.6,
  "global": {
    "const": {
      "AcquisitionMatrix": [0, 64, 64, 0],
      "AngioFlag": "N",
      "BitsAllocated": 16,
      "BitsStored": 12,
      "BodyPartExamined": "BRAIN",
      "Columns": 384,
      "EchoNumbers": 1,
      "EchoTime": 30.0,
      "EchoTrainLength": 31,
      "FlipAngle": 75.0,
      "HighBit": 11,
      "ImageOrientationPatient": [0.99998352007274, -0.003359994191, 0.00465510708477, 0.00349061483045, 0.99959220068844, -0.0283416289396],
      "ImagePositionPatient": [-574.4011940676, -589.34305374555, -1.2112263068027],
      "ImageType": [
        "ORIGINAL",
        "PRIMARY",
        "M",
        "ND",
        "NORM",
        "MOSAIC"
],
      "ImagedNucleus": "1H",
      "ImagingFrequency": 123.211169,
      "InPlanePhaseEncodingDirection": "ROW",
      "MRAcquisitionType": "2D",
      "MagneticFieldStrength": 3.0,
      "Manufacturer": "SIEMENS",
      "ManufacturerModelName": "Prisma_fit",
      "Modality": "MR",
      "NumberOfAverages": 1.0,
      "NumberOfPhaseEncodingSteps": 63,
      "PercentPhaseFieldOfView": 100.0,
      "PercentSampling": 100.0,
      "PerformedProcedureStepStartTime": "154514.560000",
      "PhotometricInterpretation": "MONOCHROME2",
      "PixelBandwidth": 1475.0,
      "PixelRepresentation": 0,
      "PixelSpacing": [3.0, 3.0],
      "ProtocolName": "Resting State_recovery",
      "RepetitionTime": 2000.0,
      "Rows": 384,
      "SAR": 0.13295411376362,
      "SamplesPerPixel": 1,
      "ScanOptions": "FS",
      "ScanningSequence": "EP",
      "SequenceName": "*epfid2d1_64",
      "SequenceVariant": "SK",
      "SeriesDescription": "Resting State_recovery",
      "SeriesNumber": 22,
      "SeriesTime": "174602.532000",
      "SliceLocation": -15.304860107223,
      "SliceThickness": 3.0,
      "SmallestImagePixelValue": 0,
      "SoftwareVersions": "syngo MR D13D",
      "SpacingBetweenSlices": 3.7500000314416,
      "SpecificCharacterSet": "ISO_IR 100",
      "StudyID": "1",
      "StudyTime": "154514.455000",
      "TimeOfLastCalibration": ["123723.000000", "123723.000000"],
      "TransmitCoilName": "Body",
      "VariableFlipAngleFlag": "N",
      "WindowCenterWidthExplanation": "Algo1",
      "dBdt": 0.0},
    "slices": {}
  },
  "time": {
    "samples": {
      "AcquisitionNumber": [1, 2, 3, 4, 5, 6, 7, 8, 9, 10, 11, 12, 13, 14, 15, 16, 17, 18, 19, 20, 21, 22, 23, 24, 25, 26, 27, 28, 29, 30, 31, 32, 33, 34, 35, 36, 37, 38, 39, 40, 41, 42, 43, 44, 45, 46, 47, 48, 49, 50, 51, 52, 53, 54, 55, 56, 57, 58, 59, 60, 61, 62, 63, 64, 65, 66, 67, 68, 69, 70, 71, 72, 73, 74, 75, 76, 77, 78, 79, 80, 81, 82, 83, 84, 85, 86, 87, 88, 89, 90, 91, 92, 93, 94, 95, 96, 97, 98, 99, 100, 101, 102, 103, 104, 105, 106, 107, 108, 109, 110, 111, 112, 113, 114, 115, 116, 117, 118, 119, 120, 121, 122, 123, 124, 125, 126, 127, 128, 129, 130, 131, 132, 133, 134, 135, 136, 137, 138, 139, 140, 141, 142, 143, 144, 145, 146, 147, 148, 149, 150, 151, 152, 153, 154, 155, 156, 157, 158, 159, 160, 161, 162, 163, 164, 165, 166, 167, 168, 169, 170, 171, 172, 173, 174, 175, 176, 177, 178, 179, 180, 181, 182, 183, 184, 185, 186, 187, 188, 189, 190, 191, 192, 193, 194, 195, 196, 197, 198, 199, 200, 201, 202, 203, 204, 205, 206, 207, 208, 209, 210, 211, 212, 213, 214, 215, 216, 217, 218, 219, 220, 221, 222, 223, 224, 225, 226, 227, 228, 229, 230, 231, 232, 233, 234, 235, 236, 237, 238, 239, 240, 241, 242, 243, 244, 245, 246, 247, 248, 249, 250, 251, 252, 253, 254, 255, 256],
      "AcquisitionTime": ["174515.122500", "174517.122500", "174519.122500", "174521.122500", "174523.122500", "174525.122500", "174527.122500", "174529.122500", "174531.122500", "174533.122500", "174535.122500", "174537.122500", "174539.122500", "174541.122500", "174543.122500", "174545.122500", "174547.122500", "174549.122500", "174551.122500", "174553.122500", "174555.122500", "174557.122500", "174559.122500", "174601.122500", "174603.122500", "174605.122500", "174607.122500", "174609.122500", "174611.122500", "174613.122500", "174615.122500", "174617.122500", "174619.122500", "174621.122500", "174623.122500", "174625.122500", "174627.122500", "174629.122500", "174631.122500", "174633.122500", "174635.122500", "174637.122500", "174639.122500", "174641.122500", "174643.122500", "174645.122500", "174647.122500", "174649.122500", "174651.122500", "174653.122500", "174655.122500", "174657.122500", "174659.122500", "174701.122500", "174703.122500", "174705.122500", "174707.122500", "174709.122500", "174711.122500", "174713.122500", "174715.122500", "174717.122500", "174719.122500", "174721.122500", "174723.122500", "174725.122500", "174727.122500", "174729.122500", "174731.122500", "174733.122500", "174735.122500", "174737.122500", "174739.122500", "174741.122500", "174743.122500", "174745.122500", "174747.122500", "174749.122500", "174751.122500", "174753.122500", "174755.122500", "174757.122500", "174759.122500", "174801.122500", "174803.122500", "174805.122500", "174807.122500", "174809.122500", "174811.122500", "174813.122500", "174815.122500", "174817.122500", "174819.122500", "174821.122500", "174823.122500", "174825.122500", "174827.122500", "174829.122500", "174831.122500", "174833.122500", "174835.122500", "174837.122500", "174839.122500", "174841.122500", "174843.122500", "174845.122500", "174847.122500", "174849.122500", "174851.122500", "174853.122500", "174855.122500", "174857.122500", "174859.122500", "174901.122500", "174903.122500", "174905.122500", "174907.122500", "174909.122500", "174911.122500", "174913.122500", "174915.122500", "174917.122500", "174919.122500", "174921.122500", "174923.122500", "174925.122500", "174927.122500", "174929.122500", "174931.122500", "174933.122500", "174935.122500", "174937.122500", "174939.122500", "174941.122500", "174943.122500", "174945.122500", "174947.122500", "174949.122500", "174951.122500", "174953.122500", "174955.122500", "174957.122500", "174959.122500", "175001.122500", "175003.122500", "175005.122500", "175007.122500", "175009.122500", "175011.122500", "175013.122500", "175015.122500", "175017.122500", "175019.122500", "175021.122500", "175023.122500", "175025.122500", "175027.122500", "175029.122500", "175031.122500", "175033.122500", "175035.122500", "175037.122500", "175039.122500", "175041.122500", "175043.122500", "175045.122500", "175047.122500", "175049.122500", "175051.122500", "175053.122500", "175055.122500", "175057.122500", "175059.122500", "175101.122500", "175103.122500", "175105.122500", "175107.122500", "175109.122500", "175111.122500", "175113.122500", "175115.122500", "175117.122500", "175119.122500", "175121.122500", "175123.122500", "175125.122500", "175127.122500", "175129.122500", "175131.122500", "175133.122500", "175135.122500", "175137.122500", "175139.122500", "175141.122500", "175143.122500", "175145.122500", "175147.122500", "175149.122500", "175151.122500", "175153.122500", "175155.122500", "175157.122500", "175159.122500", "175201.122500", "175203.122500", "175205.122500", "175207.122500", "175209.122500", "175211.122500", "175213.122500", "175215.122500", "175217.122500", "175219.122500", "175221.122500", "175223.122500", "175225.122500", "175227.122500", "175229.122500", "175231.122500", "175233.122500", "175235.122500", "175237.122500", "175239.122500", "175241.122500", "175243.122500", "175245.122500", "175247.122500", "175249.122500", "175251.122500", "175253.122500", "175255.125000", "175257.125000", "175259.125000", "175301.125000", "175303.125000", "175305.125000", "175307.125000", "175309.125000", "175311.125000", "175313.125000", "175315.125000", "175317.125000", "175319.125000", "175321.125000", "175323.125000", "175325.125000", "175327.125000", "175329.125000", "175331.125000", "175333.125000", "175335.125000", "175337.125000", "175339.125000", "175341.125000", "175343.125000", "175345.125000"],
      "ContentTime": ["174602.536000", "174602.540000", "174602.542000", "174602.545000", "174602.548000", "174602.551000", "174602.554000", "174602.557000", "174602.559000", "174602.562000", "174602.565000", "174602.568000", "174602.571000", "174602.574000", "174602.577000", "174602.580000", "174602.583000", "174602.585000", "174602.588000", "174602.591000", "174602.594000", "174602.597000", "174602.600000", "174602.603000", "174642.529000", "174642.533000", "174642.536000", "174642.538000", "174642.541000", "174642.544000", "174642.547000", "174642.550000", "174642.553000", "174642.556000", "174642.558000", "174642.561000", "174642.564000", "174642.567000", "174642.570000", "174642.573000", "174642.576000", "174642.579000", "174642.582000", "174642.585000", "174722.529000", "174722.532000", "174722.535000", "174722.538000", "174722.541000", "174722.544000", "174722.546000", "174722.549000", "174722.552000", "174722.555000", "174722.558000", "174722.561000", "174722.563000", "174722.566000", "174722.569000", "174722.572000", "174722.575000", "174722.578000", "174722.581000", "174722.584000", "174802.530000", "174802.533000", "174802.536000", "174802.539000", "174802.542000", "174802.545000", "174802.547000", "174802.550000", "174802.553000", "174802.556000", "174802.559000", "174802.562000", "174802.564000", "174802.567000", "174802.570000", "174802.573000", "174802.575000", "174802.578000", "174802.581000", "174802.584000", "174842.530000", "174842.533000", "174842.536000", "174842.539000", "174842.542000", "174842.545000", "174842.548000", "174842.550000", "174842.553000", "174842.556000", "174842.559000", "174842.562000", "174842.565000", "174842.568000", "174842.571000", "174842.574000", "174842.577000", "174842.580000", "174842.582000", "174842.585000", "174922.530000", "174922.533000", "174922.536000", "174922.539000", "174922.542000", "174922.545000", "174922.548000", "174922.550000", "174922.553000", "174922.556000", "174922.559000", "174922.562000", "174922.565000", "174922.568000", "174922.570000", "174922.573000", "174922.576000", "174922.579000", "174922.582000", "174922.585000", "175002.530000", "175002.533000", "175002.536000", "175002.539000", "175002.542000", "175002.545000", "175002.548000", "175002.551000", "175002.553000", "175002.556000", "175002.559000", "175002.562000", "175002.565000", "175002.568000", "175002.570000", "175002.574000", "175002.576000", "175002.579000", "175002.582000", "175002.585000", "175042.530000", "175042.533000", "175042.536000", "175042.539000", "175042.542000", "175042.545000", "175042.548000", "175042.551000", "175042.553000", "175042.556000", "175042.559000", "175042.562000", "175042.565000", "175042.568000", "175042.570000", "175042.573000", "175042.576000", "175042.579000", "175042.582000", "175042.585000", "175122.530000", "175122.534000", "175122.537000", "175122.539000", "175122.542000", "175122.545000", "175122.548000", "175122.551000", "175122.554000", "175122.557000", "175122.559000", "175122.562000", "175122.565000", "175122.568000", "175122.571000", "175122.574000", "175122.577000", "175122.580000", "175122.582000", "175122.585000", "175202.530000", "175202.533000", "175202.536000", "175202.539000", "175202.542000", "175202.545000", "175202.548000", "175202.551000", "175202.553000", "175202.556000", "175202.559000", "175202.562000", "175202.565000", "175202.568000", "175202.571000", "175202.573000", "175202.576000", "175202.579000", "175202.582000", "175202.585000", "175242.530000", "175242.533000", "175242.536000", "175242.539000", "175242.542000", "175242.545000", "175242.548000", "175242.551000", "175242.554000", "175242.556000", "175242.559000", "175242.562000", "175242.565000", "175242.568000", "175242.571000", "175242.574000", "175242.577000", "175242.579000", "175242.582000", "175242.585000", "175322.530000", "175322.533000", "175322.536000", "175322.539000", "175322.542000", "175322.545000", "175322.548000", "175322.551000", "175322.554000", "175322.556000", "175322.559000", "175322.562000", "175322.565000", "175322.568000", "175322.571000", "175322.573000", "175322.576000", "175322.579000", "175322.582000", "175322.585000", "175345.487000", "175345.490000", "175345.493000", "175345.495000", "175345.498000", "175345.501000", "175345.505000", "175345.509000", "175345.515000", "175345.518000", "175345.523000", "175345.527000"],
      "InstanceCreationTime": ["174602.536000", "174602.540000", "174602.542000", "174602.545000", "174602.548000", "174602.551000", "174602.554000", "174602.557000", "174602.559000", "174602.562000", "174602.565000", "174602.568000", "174602.571000", "174602.574000", "174602.577000", "174602.580000", "174602.583000", "174602.585000", "174602.588000", "174602.591000", "174602.594000", "174602.597000", "174602.600000", "174602.603000", "174642.529000", "174642.533000", "174642.536000", "174642.538000", "174642.541000", "174642.544000", "174642.547000", "174642.550000", "174642.553000", "174642.556000", "174642.558000", "174642.561000", "174642.564000", "174642.567000", "174642.570000", "174642.573000", "174642.576000", "174642.579000", "174642.582000", "174642.585000", "174722.529000", "174722.532000", "174722.535000", "174722.538000", "174722.541000", "174722.544000", "174722.546000", "174722.549000", "174722.552000", "174722.555000", "174722.558000", "174722.561000", "174722.563000", "174722.566000", "174722.569000", "174722.572000", "174722.575000", "174722.578000", "174722.581000", "174722.584000", "174802.530000", "174802.533000", "174802.536000", "174802.539000", "174802.542000", "174802.545000", "174802.547000", "174802.550000", "174802.553000", "174802.556000", "174802.559000", "174802.562000", "174802.564000", "174802.567000", "174802.570000", "174802.573000", "174802.575000", "174802.578000", "174802.581000", "174802.584000", "174842.530000", "174842.533000", "174842.536000", "174842.539000", "174842.542000", "174842.545000", "174842.548000", "174842.550000", "174842.553000", "174842.556000", "174842.559000", "174842.562000", "174842.565000", "174842.568000", "174842.571000", "174842.574000", "174842.577000", "174842.580000", "174842.582000", "174842.585000", "174922.530000", "174922.533000", "174922.536000", "174922.539000", "174922.542000", "174922.545000", "174922.548000", "174922.550000", "174922.553000", "174922.556000", "174922.559000", "174922.562000", "174922.565000", "174922.568000", "174922.570000", "174922.573000", "174922.576000", "174922.579000", "174922.582000", "174922.585000", "175002.530000", "175002.533000", "175002.536000", "175002.539000", "175002.542000", "175002.545000", "175002.548000", "175002.551000", "175002.553000", "175002.556000", "175002.559000", "175002.562000", "175002.565000", "175002.568000", "175002.570000", "175002.574000", "175002.576000", "175002.579000", "175002.582000", "175002.585000", "175042.530000", "175042.533000", "175042.536000", "175042.539000", "175042.542000", "175042.545000", "175042.548000", "175042.551000", "175042.553000", "175042.556000", "175042.559000", "175042.562000", "175042.565000", "175042.568000", "175042.570000", "175042.573000", "175042.576000", "175042.579000", "175042.582000", "175042.585000", "175122.530000", "175122.534000", "175122.537000", "175122.539000", "175122.542000", "175122.545000", "175122.548000", "175122.551000", "175122.554000", "175122.557000", "175122.559000", "175122.562000", "175122.565000", "175122.568000", "175122.571000", "175122.574000", "175122.577000", "175122.580000", "175122.582000", "175122.585000", "175202.530000", "175202.533000", "175202.536000", "175202.539000", "175202.542000", "175202.545000", "175202.548000", "175202.551000", "175202.553000", "175202.556000", "175202.559000", "175202.562000", "175202.565000", "175202.568000", "175202.571000", "175202.573000", "175202.576000", "175202.579000", "175202.582000", "175202.585000", "175242.530000", "175242.533000", "175242.536000", "175242.539000", "175242.542000", "175242.545000", "175242.548000", "175242.551000", "175242.554000", "175242.556000", "175242.559000", "175242.562000", "175242.565000", "175242.568000", "175242.571000", "175242.574000", "175242.577000", "175242.579000", "175242.582000", "175242.585000", "175322.530000", "175322.533000", "175322.536000", "175322.539000", "175322.542000", "175322.545000", "175322.548000", "175322.551000", "175322.554000", "175322.556000", "175322.559000", "175322.562000", "175322.565000", "175322.568000", "175322.571000", "175322.573000", "175322.576000", "175322.579000", "175322.582000", "175322.585000", "175345.487000", "175345.490000", "175345.493000", "175345.495000", "175345.498000", "175345.501000", "175345.505000", "175345.509000", "175345.515000", "175345.518000", "175345.523000", "175345.527000"],
      "InstanceNumber": [1, 2, 3, 4, 5, 6, 7, 8, 9, 10, 11, 12, 13, 14, 15, 16, 17, 18, 19, 20, 21, 22, 23, 24, 25, 26, 27, 28, 29, 30, 31, 32, 33, 34, 35, 36, 37, 38, 39, 40, 41, 42, 43, 44, 45, 46, 47, 48, 49, 50, 51, 52, 53, 54, 55, 56, 57, 58, 59, 60, 61, 62, 63, 64, 65, 66, 67, 68, 69, 70, 71, 72, 73, 74, 75, 76, 77, 78, 79, 80, 81, 82, 83, 84, 85, 86, 87, 88, 89, 90, 91, 92, 93, 94, 95, 96, 97, 98, 99, 100, 101, 102, 103, 104, 105, 106, 107, 108, 109, 110, 111, 112, 113, 114, 115, 116, 117, 118, 119, 120, 121, 122, 123, 124, 125, 126, 127, 128, 129, 130, 131, 132, 133, 134, 135, 136, 137, 138, 139, 140, 141, 142, 143, 144, 145, 146, 147, 148, 149, 150, 151, 152, 153, 154, 155, 156, 157, 158, 159, 160, 161, 162, 163, 164, 165, 166, 167, 168, 169, 170, 171, 172, 173, 174, 175, 176, 177, 178, 179, 180, 181, 182, 183, 184, 185, 186, 187, 188, 189, 190, 191, 192, 193, 194, 195, 196, 197, 198, 199, 200, 201, 202, 203, 204, 205, 206, 207, 208, 209, 210, 211, 212, 213, 214, 215, 216, 217, 218, 219, 220, 221, 222, 223, 224, 225, 226, 227, 228, 229, 230, 231, 232, 233, 234, 235, 236, 237, 238, 239, 240, 241, 242, 243, 244, 245, 246, 247, 248, 249, 250, 251, 252, 253, 254, 255, 256],
      "LargestImagePixelValue": [1630, 1235, 1427, 1607, 1661, 1334, 1330, 1238, 968, 970, 1535, 1078, 967, 1480, 971, 1614, 1561, 1526, 1090, 967, 965, 966, 1181, 1235, 970, 964, 971, 959, 1509, 1002, 964, 1191, 1569, 1324, 964, 968, 971, 1166, 1443, 1459, 1469, 975, 1041, 977, 974, 970, 1141, 1604, 1551, 965, 966, 967, 969, 1100, 1204, 970, 969, 972, 1427, 995, 973, 1485, 981, 981, 1135, 1293, 1466, 1120, 1292, 980, 999, 982, 983, 984, 981, 994, 987, 974, 1052, 991, 985, 1501, 1606, 987, 991, 1205, 1514, 990, 1099, 1283, 1534, 1491, 1070, 987, 991, 993, 1011, 1154, 1206, 986, 983, 1091, 1502, 988, 981, 992, 985, 983, 1285, 981, 977, 985, 989, 987, 1085, 1369, 984, 1218, 1294, 1453, 1618, 1386, 1571, 1616, 981, 995, 981, 1255, 1416, 1202, 1079, 1603, 1191, 973, 970, 976, 1101, 979, 1385, 972, 968, 1299, 1536, 1502, 992, 1188, 1140, 1456, 971, 977, 979, 1173, 1320, 979, 1459, 985, 1288, 976, 980, 994, 976, 990, 991, 1311, 1326, 1466, 990, 1541, 1522, 983, 1055, 984, 1109, 999, 994, 1322, 1032, 993, 987, 1371, 996, 990, 1320, 1020, 996, 1000, 1004, 1001, 1556, 990, 1022, 995, 990, 1197, 1559, 1614, 1517, 1071, 977, 993, 990, 978, 1360, 1500, 1458, 1539, 1177, 981, 975, 1538, 966, 1259, 973, 976, 968, 964, 1145, 982, 982, 979, 1400, 1369, 1621, 1045, 1003, 995, 992, 982, 1526, 1269, 996, 1419, 984, 978, 1557, 995, 1016, 1017, 991, 1074, 1506, 996, 1160, 985, 984, 991, 1179, 976, 1367, 1450, 1000, 1012, 1042, 975, 1453, 1571],
      "WindowCenter": [518.0, 514.0, 514.0, 515.0, 514.0, 512.0, 511.0, 509.0, 507.0, 508.0, 512.0, 507.0, 507.0, 512.0, 506.0, 511.0, 510.0, 510.0, 506.0, 504.0, 504.0, 505.0, 508.0, 508.0, 505.0, 506.0, 507.0, 508.0, 513.0, 506.0, 506.0, 510.0, 512.0, 507.0, 503.0, 505.0, 508.0, 510.0, 511.0, 510.0, 510.0, 506.0, 506.0, 505.0, 506.0, 507.0, 509.0, 511.0, 509.0, 503.0, 504.0, 505.0, 505.0, 507.0, 507.0, 504.0, 505.0, 506.0, 510.0, 504.0, 505.0, 513.0, 506.0, 505.0, 508.0, 510.0, 510.0, 507.0, 508.0, 505.0, 507.0, 508.0, 509.0, 509.0, 509.0, 510.0, 512.0, 512.0, 513.0, 512.0, 511.0, 516.0, 517.0, 509.0, 510.0, 512.0, 513.0, 507.0, 509.0, 511.0, 511.0, 510.0, 507.0, 506.0, 506.0, 506.0, 506.0, 508.0, 508.0, 505.0, 506.0, 508.0, 511.0, 507.0, 507.0, 507.0, 507.0, 507.0, 510.0, 507.0, 507.0, 507.0, 508.0, 508.0, 510.0, 511.0, 507.0, 510.0, 511.0, 511.0, 512.0, 509.0, 510.0, 510.0, 503.0, 504.0, 507.0, 510.0, 509.0, 506.0, 506.0, 510.0, 506.0, 504.0, 504.0, 505.0, 507.0, 505.0, 509.0, 505.0, 505.0, 509.0, 510.0, 509.0, 504.0, 506.0, 506.0, 508.0, 503.0, 505.0, 505.0, 507.0, 508.0, 504.0, 509.0, 504.0, 507.0, 505.0, 506.0, 507.0, 507.0, 509.0, 510.0, 513.0, 511.0, 510.0, 506.0, 510.0, 509.0, 504.0, 506.0, 507.0, 510.0, 507.0, 508.0, 513.0, 509.0, 506.0, 508.0, 512.0, 507.0, 508.0, 512.0, 509.0, 509.0, 509.0, 508.0, 508.0, 512.0, 507.0, 507.0, 507.0, 507.0, 510.0, 511.0, 509.0, 507.0, 503.0, 503.0, 506.0, 507.0, 508.0, 512.0, 512.0, 510.0, 509.0, 506.0, 503.0, 504.0, 509.0, 504.0, 507.0, 504.0, 504.0, 503.0, 505.0, 509.0, 505.0, 506.0, 507.0, 511.0, 509.0, 511.0, 506.0, 507.0, 507.0, 507.0, 507.0, 512.0, 508.0, 506.0, 509.0, 505.0, 505.0, 510.0, 505.0, 506.0, 505.0, 504.0, 505.0, 508.0, 504.0, 506.0, 504.0, 505.0, 507.0, 509.0, 507.0, 510.0, 510.0, 506.0, 507.0, 509.0, 506.0, 510.0, 510.0],
      "WindowWidth": [1075.0, 1066.0, 1067.0, 1067.0, 1065.0, 1062.0, 1061.0, 1058.0, 1055.0, 1056.0, 1063.0, 1055.0, 1055.0, 1062.0, 1054.0, 1061.0, 1059.0, 1058.0, 1052.0, 1049.0, 1049.0, 1052.0, 1055.0, 1056.0, 1052.0, 1052.0, 1054.0, 1056.0, 1065.0, 1053.0, 1054.0, 1059.0, 1062.0, 1053.0, 1046.0, 1052.0, 1057.0, 1059.0, 1061.0, 1059.0, 1058.0, 1052.0, 1053.0, 1051.0, 1053.0, 1054.0, 1057.0, 1061.0, 1058.0, 1048.0, 1049.0, 1050.0, 1051.0, 1053.0, 1054.0, 1050.0, 1052.0, 1053.0, 1058.0, 1049.0, 1052.0, 1065.0, 1052.0, 1051.0, 1056.0, 1059.0, 1059.0, 1054.0, 1056.0, 1051.0, 1055.0, 1057.0, 1059.0, 1059.0, 1060.0, 1061.0, 1064.0, 1064.0, 1066.0, 1063.0, 1063.0, 1070.0, 1071.0, 1059.0, 1060.0, 1063.0, 1065.0, 1055.0, 1057.0, 1060.0, 1061.0, 1058.0, 1054.0, 1053.0, 1053.0, 1052.0, 1053.0, 1055.0, 1056.0, 1051.0, 1053.0, 1056.0, 1060.0, 1054.0, 1054.0, 1055.0, 1055.0, 1054.0, 1059.0, 1054.0, 1054.0, 1056.0, 1057.0, 1057.0, 1060.0, 1061.0, 1056.0, 1060.0, 1060.0, 1060.0, 1062.0, 1057.0, 1058.0, 1058.0, 1048.0, 1049.0, 1055.0, 1060.0, 1056.0, 1052.0, 1052.0, 1058.0, 1052.0, 1048.0, 1050.0, 1051.0, 1053.0, 1052.0, 1057.0, 1050.0, 1052.0, 1058.0, 1059.0, 1056.0, 1048.0, 1052.0, 1052.0, 1055.0, 1047.0, 1052.0, 1051.0, 1054.0, 1055.0, 1050.0, 1056.0, 1050.0, 1054.0, 1050.0, 1052.0, 1054.0, 1055.0, 1058.0, 1061.0, 1065.0, 1061.0, 1059.0, 1053.0, 1059.0, 1056.0, 1050.0, 1052.0, 1055.0, 1061.0, 1054.0, 1058.0, 1066.0, 1057.0, 1053.0, 1057.0, 1063.0, 1054.0, 1056.0, 1062.0, 1059.0, 1059.0, 1058.0, 1057.0, 1057.0, 1063.0, 1054.0, 1055.0, 1055.0, 1055.0, 1059.0, 1060.0, 1057.0, 1052.0, 1047.0, 1047.0, 1053.0, 1055.0, 1057.0, 1062.0, 1062.0, 1058.0, 1058.0, 1051.0, 1047.0, 1048.0, 1056.0, 1049.0, 1053.0, 1050.0, 1049.0, 1048.0, 1052.0, 1059.0, 1052.0, 1052.0, 1054.0, 1060.0, 1058.0, 1060.0, 1054.0, 1054.0, 1055.0, 1055.0, 1054.0, 1061.0, 1056.0, 1052.0, 1057.0, 1051.0, 1051.0, 1058.0, 1051.0, 1052.0, 1051.0, 1050.0, 1051.0, 1055.0, 1048.0, 1051.0, 1049.0, 1052.0, 1055.0, 1058.0, 1054.0, 1059.0, 1058.0, 1053.0, 1054.0, 1058.0, 1053.0, 1059.0, 1059.0]
    },
    "slices": {}
  }
}