{
  "AcquisitionMatrixPE": 64,
  "AcquisitionNumber": 1,
  "AcquisitionTime": "15:51:24.325000",
  "BandwidthPerPixelPhaseEncode": 40.064,
  "BaseResolution": 64,
  "BodyPartExamined": "BRAIN",
  "ConsistencyInfo": "N4_VD13D_LATEST_20130810",
  "ConversionSoftware": "dcm2niix",
  "ConversionSoftwareVersion": "v1.0.20191031",
  "DerivedVendorReportedEchoSpacing": 0.000780002,
  "DeviceSerialNumber": "67007",
  "DwellTime": 5.3e-06,
  "EchoTime": 0.03,
  "EchoTrainLength": 31,
  "EffectiveEchoSpacing": 0.000390001,
  "FlipAngle": 75,
  "ImageOrientationPatientDICOM": [0.99993, 0.00369369, -0.0112199, -0.00349043, 0.99983, 0.0180818],
  "ImageType": [
    "ORIGINAL",
    "PRIMARY",
    "M",
    "ND",
    "NORM",
    "MOSAIC"
],
  "ImagingFrequency": 123.211,
  "InPlanePhaseEncodingDirectionDICOM": "ROW",
  "InstitutionAddress": "Perth_Drive_100_London_Ontario_CA_N6A_5K8",
  "InstitutionName": "Robarts_Research_Institute",
  "InstitutionalDepartmentName": "CFMM",
  "MRAcquisitionType": "2D",
  "MagneticFieldStrength": 3,
  "Manufacturer": "Siemens",
  "ManufacturersModelName": "Prisma_fit",
  "Modality": "MR",
  "ParallelReductionFactorInPlane": 2,
  "PartialFourier": 1,
  "PatientPosition": "HFS",
  "PercentPhaseFOV": 100,
  "PhaseEncodingDirection": "i",
  "PhaseEncodingSteps": 63,
  "PhaseResolution": 1,
  "PixelBandwidth": 1475,
  "ProcedureStepDescription": "Owen_Naci",
  "ProtocolName": "Resting_State",
  "PulseSequenceDetails": "%SiemensSeq%_ep2d_bold",
  "ReceiveCoilActiveElements": "HEA;HEP",
  "ReceiveCoilName": "Head_32",
  "ReconMatrixPE": 64,
  "RefLinesPE": 24,
  "RepetitionTime": 2,
  "SAR": 0.0928203,
  "ScanOptions": "FS",
  "ScanningSequence": "EP",
  "SequenceName": "_epfid2d1_64",
  "SequenceVariant": "SK",
  "SeriesDescription": "Resting_State",
  "SeriesNumber": 5,
  "ShimSetting": [5238, -6182, -3817, 454, 34, -33, -19, 3],
  "SliceThickness": 3,
  "SliceTiming": [1.92, 1.86, 1.8, 1.74, 1.68, 1.62, 1.56, 1.5, 1.44, 1.38, 1.32, 1.26, 1.2, 1.14, 1.08, 1.02, 0.96, 0.9, 0.84, 0.78, 0.72, 0.66, 0.6, 0.54, 0.48, 0.42, 0.36, 0.3, 0.24, 0.18, 0.12, 0.06, 0],
  "SoftwareVersions": "syngo_MR_D13D",
  "SpacingBetweenSlices": 3.75,
  "StationName": "AWP67007",
  "TaskName": "rest",
  "TotalReadoutTime": 0.0245701,
  "TxRefAmp": 271.463,
  "dcmmeta_affine": [
    [-2.999790668487549, -0.010471288114786148, -0.042318008840084076, 95.87667846679688],
    [-0.01108106505125761, 2.9994912147521973, 0.06765512377023697, -71.85334777832031],
    [-0.03365974873304367, -0.054245367646217346, 3.7491509914398193, -42.570335388183594],
    [0.0, 0.0, 0.0, 1.0]
],
  "dcmmeta_reorient_transform": [
    [0.0, -1.0, 0.0, 63.0],
    [1.0, 0.0, 0.0, 0.0],
    [0.0, 0.0, 1.0, 0.0],
    [0.0, 0.0, 0.0, 1.0]
],
  "dcmmeta_shape": [64, 64, 33, 256],
  "dcmmeta_slice_dim": 2,
  "dcmmeta_version": 0.6,
  "global": {
    "const": {
      "AcquisitionMatrix": [0, 64, 64, 0],
      "AngioFlag": "N",
      "BitsAllocated": 16,
      "BitsStored": 12,
      "BodyPartExamined": "BRAIN",
      "Columns": 384,
      "EchoNumbers": 1,
      "EchoTime": 30.0,
      "EchoTrainLength": 31,
      "FlipAngle": 75.0,
      "HighBit": 11,
      "ImageOrientationPatient": [0.99993023263949, 0.00369368847446, -0.0112199161761, -0.0034904294527, 0.9998304185226, 0.01808178915828],
      "ImagePositionPatient": [-573.50809484839, -598.80617080182, -49.281490809184],
      "ImageType": [
        "ORIGINAL",
        "PRIMARY",
        "M",
        "ND",
        "NORM",
        "MOSAIC"
],
      "ImagedNucleus": "1H",
      "ImagingFrequency": 123.21101,
      "InPlanePhaseEncodingDirection": "ROW",
      "MRAcquisitionType": "2D",
      "MagneticFieldStrength": 3.0,
      "Manufacturer": "SIEMENS",
      "ManufacturerModelName": "Prisma_fit",
      "Modality": "MR",
      "NumberOfAverages": 1.0,
      "NumberOfPhaseEncodingSteps": 63,
      "PercentPhaseFieldOfView": 100.0,
      "PercentSampling": 100.0,
      "PerformedProcedureStepStartTime": "153227.866000",
      "PhotometricInterpretation": "MONOCHROME2",
      "PixelBandwidth": 1475.0,
      "PixelRepresentation": 0,
      "PixelSpacing": [3.0, 3.0],
      "ProtocolName": "Resting State",
      "RepetitionTime": 2000.0,
      "Rows": 384,
      "SAR": 0.09282028701105,
      "SamplesPerPixel": 1,
      "ScanOptions": "FS",
      "ScanningSequence": "EP",
      "SequenceName": "*epfid2d1_64",
      "SequenceVariant": "SK",
      "SeriesDescription": "Resting State",
      "SeriesNumber": 5,
      "SeriesTime": "155222.844000",
      "SliceLocation": -44.938975695313,
      "SliceThickness": 3.0,
      "SmallestImagePixelValue": 0,
      "SoftwareVersions": "syngo MR D13D",
      "SpacingBetweenSlices": 3.7500000394098,
      "SpecificCharacterSet": "ISO_IR 100",
      "StudyID": "1",
      "StudyTime": "153227.809000",
      "TimeOfLastCalibration": ["123723.000000", "123723.000000"],
      "TransmitCoilName": "Body",
      "VariableFlipAngleFlag": "N",
      "WindowCenterWidthExplanation": "Algo1",
      "dBdt": 0.0},
    "slices": {}
  },
  "time": {
    "samples": {
      "AcquisitionNumber": [1, 2, 3, 4, 5, 6, 7, 8, 9, 10, 11, 12, 13, 14, 15, 16, 17, 18, 19, 20, 21, 22, 23, 24, 25, 26, 27, 28, 29, 30, 31, 32, 33, 34, 35, 36, 37, 38, 39, 40, 41, 42, 43, 44, 45, 46, 47, 48, 49, 50, 51, 52, 53, 54, 55, 56, 57, 58, 59, 60, 61, 62, 63, 64, 65, 66, 67, 68, 69, 70, 71, 72, 73, 74, 75, 76, 77, 78, 79, 80, 81, 82, 83, 84, 85, 86, 87, 88, 89, 90, 91, 92, 93, 94, 95, 96, 97, 98, 99, 100, 101, 102, 103, 104, 105, 106, 107, 108, 109, 110, 111, 112, 113, 114, 115, 116, 117, 118, 119, 120, 121, 122, 123, 124, 125, 126, 127, 128, 129, 130, 131, 132, 133, 134, 135, 136, 137, 138, 139, 140, 141, 142, 143, 144, 145, 146, 147, 148, 149, 150, 151, 152, 153, 154, 155, 156, 157, 158, 159, 160, 161, 162, 163, 164, 165, 166, 167, 168, 169, 170, 171, 172, 173, 174, 175, 176, 177, 178, 179, 180, 181, 182, 183, 184, 185, 186, 187, 188, 189, 190, 191, 192, 193, 194, 195, 196, 197, 198, 199, 200, 201, 202, 203, 204, 205, 206, 207, 208, 209, 210, 211, 212, 213, 214, 215, 216, 217, 218, 219, 220, 221, 222, 223, 224, 225, 226, 227, 228, 229, 230, 231, 232, 233, 234, 235, 236, 237, 238, 239, 240, 241, 242, 243, 244, 245, 246, 247, 248, 249, 250, 251, 252, 253, 254, 255, 256],
      "AcquisitionTime": ["155124.325000", "155126.325000", "155128.325000", "155130.325000", "155132.325000", "155134.325000", "155136.325000", "155138.325000", "155140.325000", "155142.325000", "155144.325000", "155146.325000", "155148.325000", "155150.325000", "155152.325000", "155154.325000", "155156.325000", "155158.325000", "155200.325000", "155202.325000", "155204.325000", "155206.325000", "155208.325000", "155210.325000", "155212.325000", "155214.325000", "155216.325000", "155218.325000", "155220.325000", "155222.325000", "155224.325000", "155226.325000", "155228.325000", "155230.325000", "155232.325000", "155234.325000", "155236.325000", "155238.325000", "155240.325000", "155242.325000", "155244.325000", "155246.325000", "155248.325000", "155250.325000", "155252.325000", "155254.325000", "155256.325000", "155258.325000", "155300.325000", "155302.325000", "155304.325000", "155306.325000", "155308.325000", "155310.325000", "155312.325000", "155314.325000", "155316.325000", "155318.325000", "155320.325000", "155322.325000", "155324.325000", "155326.325000", "155328.325000", "155330.325000", "155332.325000", "155334.325000", "155336.325000", "155338.325000", "155340.325000", "155342.325000", "155344.325000", "155346.325000", "155348.325000", "155350.325000", "155352.325000", "155354.325000", "155356.325000", "155358.325000", "155400.325000", "155402.325000", "155404.325000", "155406.325000", "155408.325000", "155410.325000", "155412.325000", "155414.325000", "155416.325000", "155418.325000", "155420.325000", "155422.325000", "155424.325000", "155426.325000", "155428.325000", "155430.325000", "155432.325000", "155434.325000", "155436.325000", "155438.325000", "155440.325000", "155442.325000", "155444.325000", "155446.325000", "155448.325000", "155450.325000", "155452.325000", "155454.325000", "155456.325000", "155458.325000", "155500.325000", "155502.325000", "155504.325000", "155506.325000", "155508.325000", "155510.325000", "155512.325000", "155514.325000", "155516.325000", "155518.325000", "155520.325000", "155522.325000", "155524.325000", "155526.325000", "155528.325000", "155530.325000", "155532.325000", "155534.325000", "155536.325000", "155538.325000", "155540.325000", "155542.325000", "155544.325000", "155546.325000", "155548.325000", "155550.325000", "155552.325000", "155554.325000", "155556.325000", "155558.325000", "155600.325000", "155602.325000", "155604.325000", "155606.325000", "155608.325000", "155610.325000", "155612.325000", "155614.325000", "155616.325000", "155618.325000", "155620.325000", "155622.325000", "155624.325000", "155626.325000", "155628.325000", "155630.325000", "155632.325000", "155634.325000", "155636.325000", "155638.325000", "155640.325000", "155642.325000", "155644.325000", "155646.325000", "155648.325000", "155650.325000", "155652.325000", "155654.325000", "155656.325000", "155658.325000", "155700.325000", "155702.325000", "155704.325000", "155706.325000", "155708.325000", "155710.325000", "155712.325000", "155714.325000", "155716.325000", "155718.325000", "155720.325000", "155722.325000", "155724.325000", "155726.325000", "155728.325000", "155730.325000", "155732.325000", "155734.325000", "155736.325000", "155738.325000", "155740.325000", "155742.325000", "155744.325000", "155746.325000", "155748.325000", "155750.325000", "155752.325000", "155754.325000", "155756.325000", "155758.325000", "155800.325000", "155802.325000", "155804.325000", "155806.325000", "155808.325000", "155810.325000", "155812.325000", "155814.325000", "155816.325000", "155818.325000", "155820.325000", "155822.325000", "155824.325000", "155826.325000", "155828.325000", "155830.325000", "155832.325000", "155834.325000", "155836.325000", "155838.325000", "155840.325000", "155842.325000", "155844.325000", "155846.325000", "155848.325000", "155850.325000", "155852.325000", "155854.325000", "155856.325000", "155858.325000", "155900.325000", "155902.327500", "155904.327500", "155906.327500", "155908.327500", "155910.327500", "155912.327500", "155914.327500", "155916.327500", "155918.327500", "155920.327500", "155922.327500", "155924.327500", "155926.327500", "155928.327500", "155930.327500", "155932.327500", "155934.327500", "155936.327500", "155938.327500", "155940.327500", "155942.327500", "155944.327500", "155946.327500", "155948.327500", "155950.327500", "155952.327500", "155954.327500"],
      "ContentTime": ["155222.848000", "155222.852000", "155222.855000", "155222.857000", "155222.860000", "155222.865000", "155222.867000", "155222.870000", "155222.874000", "155222.876000", "155222.879000", "155222.883000", "155222.886000", "155222.889000", "155222.898000", "155222.901000", "155222.904000", "155222.906000", "155222.909000", "155222.912000", "155222.915000", "155222.918000", "155222.921000", "155222.924000", "155222.926000", "155222.929000", "155222.933000", "155222.935000", "155222.938000", "155302.841000", "155302.844000", "155302.847000", "155302.850000", "155302.853000", "155302.856000", "155302.858000", "155302.861000", "155302.864000", "155302.866000", "155302.869000", "155302.879000", "155302.882000", "155302.884000", "155302.887000", "155302.890000", "155302.893000", "155302.896000", "155302.898000", "155302.901000", "155302.904000", "155342.849000", "155342.853000", "155342.856000", "155342.859000", "155342.862000", "155342.865000", "155342.868000", "155342.871000", "155342.873000", "155342.877000", "155342.881000", "155342.884000", "155342.886000", "155342.889000", "155342.892000", "155342.895000", "155342.898000", "155342.900000", "155342.903000", "155422.842000", "155422.845000", "155422.848000", "155422.851000", "155422.854000", "155422.857000", "155422.860000", "155422.862000", "155422.865000", "155422.868000", "155422.870000", "155422.873000", "155422.876000", "155422.879000", "155422.882000", "155422.885000", "155422.888000", "155422.890000", "155422.893000", "155422.896000", "155422.899000", "155502.841000", "155502.844000", "155502.847000", "155502.850000", "155502.853000", "155502.855000", "155502.858000", "155502.862000", "155502.866000", "155502.869000", "155502.871000", "155502.874000", "155502.877000", "155502.880000", "155502.883000", "155502.886000", "155502.888000", "155502.891000", "155502.894000", "155542.841000", "155542.845000", "155542.848000", "155542.850000", "155542.854000", "155542.857000", "155542.859000", "155542.862000", "155542.865000", "155542.868000", "155542.871000", "155542.874000", "155542.876000", "155542.879000", "155542.882000", "155542.885000", "155542.888000", "155542.890000", "155542.893000", "155542.896000", "155542.899000", "155622.840000", "155622.843000", "155622.846000", "155622.849000", "155622.852000", "155622.855000", "155622.859000", "155622.864000", "155622.866000", "155622.869000", "155622.872000", "155622.875000", "155622.879000", "155622.882000", "155622.885000", "155622.888000", "155622.891000", "155622.893000", "155622.896000", "155702.842000", "155702.845000", "155702.848000", "155702.851000", "155702.854000", "155702.857000", "155702.860000", "155702.863000", "155702.866000", "155702.868000", "155702.871000", "155702.874000", "155702.877000", "155702.880000", "155702.883000", "155702.885000", "155702.888000", "155702.891000", "155702.894000", "155702.897000", "155702.900000", "155742.841000", "155742.844000", "155742.847000", "155742.850000", "155742.853000", "155742.856000", "155742.860000", "155742.863000", "155742.866000", "155742.869000", "155742.872000", "155742.876000", "155742.879000", "155742.882000", "155742.885000", "155742.888000", "155742.890000", "155742.893000", "155742.896000", "155822.841000", "155822.844000", "155822.854000", "155822.858000", "155822.860000", "155822.863000", "155822.867000", "155822.870000", "155822.873000", "155822.876000", "155822.878000", "155822.881000", "155822.884000", "155822.887000", "155822.890000", "155822.893000", "155822.895000", "155822.898000", "155822.901000", "155822.904000", "155822.907000", "155902.841000", "155902.844000", "155902.847000", "155902.850000", "155902.853000", "155902.857000", "155902.860000", "155902.863000", "155902.866000", "155902.869000", "155902.873000", "155902.877000", "155902.880000", "155902.883000", "155902.886000", "155902.888000", "155902.891000", "155902.894000", "155902.897000", "155922.840000", "155922.844000", "155922.847000", "155922.850000", "155922.854000", "155922.857000", "155922.860000", "155922.864000", "155922.867000", "155922.870000", "155954.864000", "155954.867000", "155954.870000", "155954.873000", "155954.876000", "155954.879000", "155954.882000", "155954.884000", "155954.887000", "155954.890000", "155954.893000", "155954.896000", "155954.902000", "155954.905000", "155954.909000", "155954.913000", "155954.917000"],
      "InstanceCreationTime": ["155222.848000", "155222.852000", "155222.855000", "155222.857000", "155222.860000", "155222.865000", "155222.867000", "155222.870000", "155222.874000", "155222.876000", "155222.879000", "155222.883000", "155222.886000", "155222.889000", "155222.898000", "155222.901000", "155222.904000", "155222.906000", "155222.909000", "155222.912000", "155222.915000", "155222.918000", "155222.921000", "155222.924000", "155222.926000", "155222.929000", "155222.933000", "155222.935000", "155222.938000", "155302.841000", "155302.844000", "155302.847000", "155302.850000", "155302.853000", "155302.856000", "155302.858000", "155302.861000", "155302.864000", "155302.866000", "155302.869000", "155302.879000", "155302.882000", "155302.884000", "155302.887000", "155302.890000", "155302.893000", "155302.896000", "155302.898000", "155302.901000", "155302.904000", "155342.849000", "155342.853000", "155342.856000", "155342.859000", "155342.862000", "155342.865000", "155342.868000", "155342.871000", "155342.873000", "155342.877000", "155342.881000", "155342.884000", "155342.886000", "155342.889000", "155342.892000", "155342.895000", "155342.898000", "155342.900000", "155342.903000", "155422.842000", "155422.845000", "155422.848000", "155422.851000", "155422.854000", "155422.857000", "155422.860000", "155422.862000", "155422.865000", "155422.868000", "155422.870000", "155422.873000", "155422.876000", "155422.879000", "155422.882000", "155422.885000", "155422.888000", "155422.890000", "155422.893000", "155422.896000", "155422.899000", "155502.841000", "155502.844000", "155502.847000", "155502.850000", "155502.853000", "155502.855000", "155502.858000", "155502.862000", "155502.866000", "155502.869000", "155502.871000", "155502.874000", "155502.877000", "155502.880000", "155502.883000", "155502.886000", "155502.888000", "155502.891000", "155502.894000", "155542.841000", "155542.845000", "155542.848000", "155542.850000", "155542.854000", "155542.857000", "155542.859000", "155542.862000", "155542.865000", "155542.868000", "155542.871000", "155542.874000", "155542.876000", "155542.879000", "155542.882000", "155542.885000", "155542.888000", "155542.890000", "155542.893000", "155542.896000", "155542.899000", "155622.840000", "155622.843000", "155622.846000", "155622.849000", "155622.852000", "155622.855000", "155622.859000", "155622.864000", "155622.866000", "155622.869000", "155622.872000", "155622.875000", "155622.879000", "155622.882000", "155622.885000", "155622.888000", "155622.891000", "155622.893000", "155622.896000", "155702.842000", "155702.845000", "155702.848000", "155702.851000", "155702.854000", "155702.857000", "155702.860000", "155702.863000", "155702.866000", "155702.868000", "155702.871000", "155702.874000", "155702.877000", "155702.880000", "155702.883000", "155702.885000", "155702.888000", "155702.891000", "155702.894000", "155702.897000", "155702.900000", "155742.841000", "155742.844000", "155742.847000", "155742.850000", "155742.853000", "155742.856000", "155742.860000", "155742.863000", "155742.866000", "155742.869000", "155742.872000", "155742.876000", "155742.879000", "155742.882000", "155742.885000", "155742.888000", "155742.890000", "155742.893000", "155742.896000", "155822.841000", "155822.844000", "155822.854000", "155822.858000", "155822.860000", "155822.863000", "155822.867000", "155822.870000", "155822.873000", "155822.876000", "155822.878000", "155822.881000", "155822.884000", "155822.887000", "155822.890000", "155822.893000", "155822.895000", "155822.898000", "155822.901000", "155822.904000", "155822.907000", "155902.841000", "155902.844000", "155902.847000", "155902.850000", "155902.853000", "155902.857000", "155902.860000", "155902.863000", "155902.866000", "155902.869000", "155902.873000", "155902.877000", "155902.880000", "155902.883000", "155902.886000", "155902.888000", "155902.891000", "155902.894000", "155902.897000", "155922.840000", "155922.844000", "155922.847000", "155922.850000", "155922.854000", "155922.857000", "155922.860000", "155922.864000", "155922.867000", "155922.870000", "155954.864000", "155954.867000", "155954.870000", "155954.873000", "155954.876000", "155954.879000", "155954.882000", "155954.884000", "155954.887000", "155954.890000", "155954.893000", "155954.896000", "155954.902000", "155954.905000", "155954.909000", "155954.913000", "155954.917000"],
      "InstanceNumber": [1, 2, 3, 4, 5, 6, 7, 8, 9, 10, 11, 12, 13, 14, 15, 16, 17, 18, 19, 20, 21, 22, 23, 24, 25, 26, 27, 28, 29, 30, 31, 32, 33, 34, 35, 36, 37, 38, 39, 40, 41, 42, 43, 44, 45, 46, 47, 48, 49, 50, 51, 52, 53, 54, 55, 56, 57, 58, 59, 60, 61, 62, 63, 64, 65, 66, 67, 68, 69, 70, 71, 72, 73, 74, 75, 76, 77, 78, 79, 80, 81, 82, 83, 84, 85, 86, 87, 88, 89, 90, 91, 92, 93, 94, 95, 96, 97, 98, 99, 100, 101, 102, 103, 104, 105, 106, 107, 108, 109, 110, 111, 112, 113, 114, 115, 116, 117, 118, 119, 120, 121, 122, 123, 124, 125, 126, 127, 128, 129, 130, 131, 132, 133, 134, 135, 136, 137, 138, 139, 140, 141, 142, 143, 144, 145, 146, 147, 148, 149, 150, 151, 152, 153, 154, 155, 156, 157, 158, 159, 160, 161, 162, 163, 164, 165, 166, 167, 168, 169, 170, 171, 172, 173, 174, 175, 176, 177, 178, 179, 180, 181, 182, 183, 184, 185, 186, 187, 188, 189, 190, 191, 192, 193, 194, 195, 196, 197, 198, 199, 200, 201, 202, 203, 204, 205, 206, 207, 208, 209, 210, 211, 212, 213, 214, 215, 216, 217, 218, 219, 220, 221, 222, 223, 224, 225, 226, 227, 228, 229, 230, 231, 232, 233, 234, 235, 236, 237, 238, 239, 240, 241, 242, 243, 244, 245, 246, 247, 248, 249, 250, 251, 252, 253, 254, 255, 256],
      "LargestImagePixelValue": [955, 1179, 993, 993, 1242, 1004, 1192, 902, 1180, 1058, 1544, 1245, 1002, 1172, 1099, 1231, 1010, 920, 1190, 1002, 1191, 1034, 953, 985, 1013, 1488, 979, 1030, 1229, 1271, 967, 1019, 1139, 875, 1022, 899, 1082, 1322, 1017, 950, 998, 1011, 1091, 918, 1060, 1320, 893, 1183, 1027, 931, 1231, 967, 1037, 1016, 1260, 1188, 973, 977, 977, 1105, 1251, 1004, 1006, 936, 1010, 1258, 1029, 975, 907, 997, 1085, 1136, 1202, 907, 1059, 1275, 1027, 927, 968, 1101, 1242, 1520, 938, 1259, 1004, 1249, 924, 898, 1029, 1163, 896, 987, 951, 1045, 1254, 942, 1102, 922, 1099, 898, 1012, 918, 1013, 1204, 943, 1532, 955, 1255, 909, 954, 1442, 977, 1199, 947, 1009, 983, 1457, 1028, 1349, 908, 919, 919, 1236, 1054, 929, 956, 870, 1062, 1044, 1261, 1041, 884, 1360, 1338, 987, 922, 1121, 1034, 1110, 1019, 899, 1049, 1120, 926, 990, 943, 984, 1064, 1165, 963, 974, 1097, 1026, 1294, 1199, 982, 1353, 909, 1163, 939, 1109, 910, 972, 1145, 1334, 1382, 1076, 1013, 935, 1002, 1143, 1265, 1511, 982, 1014, 974, 993, 1119, 982, 1080, 998, 1031, 1277, 980, 1020, 1275, 1375, 938, 935, 948, 1261, 1438, 1623, 936, 1043, 936, 1047, 938, 1083, 1005, 1027, 1522, 977, 1165, 1178, 939, 1113, 943, 967, 1301, 1151, 1161, 934, 947, 1112, 978, 1225, 942, 1128, 978, 1039, 1046, 992, 953, 1058, 1010, 1503, 1506, 1127, 1229, 1139, 1393, 1269, 1016, 1204, 993, 976, 1197, 1114, 1011, 946, 952, 1382, 1349, 1361, 1267, 1121, 928, 944, 1001, 1001, 1057, 985, 1308, 1252, 1435],
      "WindowCenter": [486.0, 487.0, 485.0, 484.0, 486.0, 484.0, 486.0, 483.0, 487.0, 486.0, 489.0, 486.0, 483.0, 485.0, 484.0, 485.0, 483.0, 482.0, 485.0, 483.0, 484.0, 483.0, 482.0, 483.0, 484.0, 486.0, 482.0, 483.0, 484.0, 484.0, 481.0, 481.0, 483.0, 480.0, 482.0, 481.0, 482.0, 483.0, 481.0, 480.0, 481.0, 482.0, 482.0, 481.0, 482.0, 484.0, 480.0, 483.0, 482.0, 481.0, 483.0, 481.0, 482.0, 482.0, 483.0, 481.0, 480.0, 480.0, 482.0, 483.0, 483.0, 481.0, 481.0, 481.0, 481.0, 483.0, 481.0, 480.0, 480.0, 483.0, 483.0, 483.0, 483.0, 481.0, 483.0, 484.0, 482.0, 481.0, 482.0, 484.0, 485.0, 485.0, 481.0, 484.0, 482.0, 483.0, 480.0, 481.0, 482.0, 483.0, 481.0, 482.0, 483.0, 484.0, 485.0, 482.0, 484.0, 481.0, 484.0, 481.0, 482.0, 482.0, 483.0, 485.0, 483.0, 487.0, 483.0, 485.0, 482.0, 483.0, 486.0, 482.0, 484.0, 482.0, 484.0, 484.0, 486.0, 482.0, 484.0, 481.0, 481.0, 482.0, 484.0, 483.0, 481.0, 482.0, 482.0, 484.0, 483.0, 490.0, 485.0, 483.0, 487.0, 484.0, 482.0, 481.0, 484.0, 483.0, 482.0, 481.0, 480.0, 482.0, 483.0, 480.0, 482.0, 482.0, 484.0, 485.0, 485.0, 483.0, 483.0, 486.0, 485.0, 486.0, 486.0, 484.0, 487.0, 483.0, 486.0, 484.0, 485.0, 483.0, 485.0, 486.0, 487.0, 487.0, 484.0, 483.0, 483.0, 485.0, 486.0, 487.0, 487.0, 483.0, 483.0, 483.0, 483.0, 484.0, 483.0, 485.0, 484.0, 485.0, 486.0, 484.0, 486.0, 488.0, 487.0, 483.0, 484.0, 486.0, 489.0, 488.0, 488.0, 483.0, 484.0, 484.0, 485.0, 483.0, 485.0, 486.0, 486.0, 489.0, 483.0, 484.0, 484.0, 483.0, 484.0, 483.0, 484.0, 487.0, 485.0, 484.0, 483.0, 483.0, 485.0, 483.0, 485.0, 483.0, 485.0, 483.0, 483.0, 484.0, 485.0, 486.0, 486.0, 486.0, 489.0, 488.0, 484.0, 485.0, 485.0, 486.0, 484.0, 482.0, 483.0, 482.0, 484.0, 486.0, 485.0, 484.0, 484.0, 486.0, 488.0, 487.0, 486.0, 484.0, 484.0, 482.0, 482.0, 483.0, 484.0, 484.0, 483.0, 485.0, 485.0, 485.0],
      "WindowWidth": [1012.0, 1011.0, 1009.0, 1007.0, 1010.0, 1007.0, 1010.0, 1005.0, 1011.0, 1010.0, 1015.0, 1009.0, 1005.0, 1008.0, 1007.0, 1009.0, 1004.0, 1004.0, 1008.0, 1004.0, 1006.0, 1004.0, 1003.0, 1006.0, 1007.0, 1009.0, 1003.0, 1005.0, 1006.0, 1006.0, 1002.0, 1001.0, 1004.0, 999.0, 1003.0, 1001.0, 1004.0, 1004.0, 1001.0, 1000.0, 1001.0, 1002.0, 1002.0, 1001.0, 1003.0, 1006.0, 999.0, 1005.0, 1002.0, 1000.0, 1004.0, 1000.0, 1003.0, 1002.0, 1005.0, 1001.0, 1000.0, 1000.0, 1002.0, 1004.0, 1004.0, 1001.0, 1001.0, 1001.0, 1001.0, 1003.0, 1001.0, 1000.0, 999.0, 1004.0, 1005.0, 1004.0, 1004.0, 1001.0, 1005.0, 1006.0, 1002.0, 1000.0, 1004.0, 1006.0, 1008.0, 1007.0, 1001.0, 1006.0, 1002.0, 1005.0, 1000.0, 1002.0, 1004.0, 1005.0, 1001.0, 1003.0, 1004.0, 1006.0, 1007.0, 1003.0, 1005.0, 1002.0, 1006.0, 1002.0, 1004.0, 1003.0, 1005.0, 1008.0, 1004.0, 1011.0, 1004.0, 1007.0, 1004.0, 1005.0, 1010.0, 1003.0, 1006.0, 1003.0, 1006.0, 1007.0, 1011.0, 1004.0, 1005.0, 1001.0, 1001.0, 1004.0, 1006.0, 1004.0, 1000.0, 1003.0, 1003.0, 1006.0, 1004.0, 1018.0, 1009.0, 1005.0, 1012.0, 1006.0, 1002.0, 1002.0, 1006.0, 1004.0, 1003.0, 1000.0, 1000.0, 1003.0, 1003.0, 1000.0, 1002.0, 1003.0, 1006.0, 1008.0, 1008.0, 1006.0, 1005.0, 1010.0, 1008.0, 1010.0, 1009.0, 1007.0, 1011.0, 1005.0, 1009.0, 1006.0, 1009.0, 1005.0, 1008.0, 1009.0, 1012.0, 1011.0, 1006.0, 1005.0, 1006.0, 1008.0, 1011.0, 1011.0, 1011.0, 1006.0, 1005.0, 1005.0, 1004.0, 1006.0, 1005.0, 1009.0, 1007.0, 1007.0, 1009.0, 1007.0, 1011.0, 1013.0, 1012.0, 1006.0, 1007.0, 1010.0, 1015.0, 1013.0, 1013.0, 1004.0, 1007.0, 1007.0, 1009.0, 1006.0, 1009.0, 1009.0, 1009.0, 1014.0, 1006.0, 1006.0, 1006.0, 1004.0, 1007.0, 1004.0, 1007.0, 1011.0, 1008.0, 1006.0, 1006.0, 1004.0, 1008.0, 1005.0, 1008.0, 1005.0, 1008.0, 1006.0, 1005.0, 1006.0, 1008.0, 1010.0, 1010.0, 1011.0, 1015.0, 1013.0, 1007.0, 1007.0, 1008.0, 1009.0, 1006.0, 1002.0, 1005.0, 1004.0, 1007.0, 1010.0, 1008.0, 1006.0, 1007.0, 1010.0, 1013.0, 1010.0, 1009.0, 1006.0, 1005.0, 1003.0, 1003.0, 1005.0, 1007.0, 1006.0, 1006.0, 1008.0, 1008.0, 1007.0]
    },
    "slices": {}
  }
}