{
  "AcquisitionMatrixPE": 64,
  "AcquisitionNumber": 1,
  "AcquisitionTime": "17:21:39.965000",
  "BandwidthPerPixelPhaseEncode": 40.064,
  "BaseResolution": 64,
  "BodyPartExamined": "BRAIN",
  "ConsistencyInfo": "N4_VD13D_LATEST_20130810",
  "ConversionSoftware": "dcm2niix",
  "ConversionSoftwareVersion": "v1.0.20191031",
  "DerivedVendorReportedEchoSpacing": 0.000780002,
  "DeviceSerialNumber": "67007",
  "DwellTime": 5.3e-06,
  "EchoTime": 0.03,
  "EchoTrainLength": 31,
  "EffectiveEchoSpacing": 0.000390001,
  "FlipAngle": 75,
  "ImageOrientationPatientDICOM": [0.99993, 0.00369369, -0.0112199, -0.00349043, 0.99983, 0.0180818],
  "ImageType": [
    "ORIGINAL",
    "PRIMARY",
    "M",
    "ND",
    "NORM",
    "MOSAIC"
],
  "ImagingFrequency": 123.211,
  "InPlanePhaseEncodingDirectionDICOM": "ROW",
  "InstitutionAddress": "Perth_Drive_100_London_Ontario_CA_N6A_5K8",
  "InstitutionName": "Robarts_Research_Institute",
  "InstitutionalDepartmentName": "CFMM",
  "MRAcquisitionType": "2D",
  "MagneticFieldStrength": 3,
  "Manufacturer": "Siemens",
  "ManufacturersModelName": "Prisma_fit",
  "Modality": "MR",
  "ParallelReductionFactorInPlane": 2,
  "PartialFourier": 1,
  "PatientPosition": "HFS",
  "PercentPhaseFOV": 100,
  "PhaseEncodingDirection": "i",
  "PhaseEncodingSteps": 63,
  "PhaseResolution": 1,
  "PixelBandwidth": 1475,
  "ProcedureStepDescription": "Owen_Naci",
  "ProtocolName": "Resting_State_recovery",
  "PulseSequenceDetails": "%SiemensSeq%_ep2d_bold",
  "ReceiveCoilActiveElements": "HEA;HEP",
  "ReceiveCoilName": "Head_32",
  "ReconMatrixPE": 64,
  "RefLinesPE": 24,
  "RepetitionTime": 2,
  "SAR": 0.0928203,
  "ScanOptions": "FS",
  "ScanningSequence": "EP",
  "SequenceName": "_epfid2d1_64",
  "SequenceVariant": "SK",
  "SeriesDescription": "Resting_State_recovery",
  "SeriesNumber": 20,
  "ShimSetting": [5238, -6182, -3817, 454, 34, -33, -19, 3],
  "SliceThickness": 3,
  "SliceTiming": [1.92, 1.86, 1.8, 1.74, 1.68, 1.62, 1.56, 1.5, 1.44, 1.38, 1.32, 1.26, 1.2, 1.14, 1.08, 1.02, 0.96, 0.9, 0.84, 0.78, 0.72, 0.66, 0.6, 0.54, 0.48, 0.42, 0.36, 0.3, 0.24, 0.18, 0.12, 0.06, 0],
  "SoftwareVersions": "syngo_MR_D13D",
  "SpacingBetweenSlices": 3.75,
  "StationName": "AWP67007",
  "TaskName": "restrecovery",
  "TotalReadoutTime": 0.0245701,
  "TxRefAmp": 271.463,
  "dcmmeta_affine": [
    [-2.999790668487549, -0.010471288114786148, -0.042318008840084076, 95.87667846679688],
    [-0.01108106505125761, 2.9994912147521973, 0.06765512377023697, -71.85334777832031],
    [-0.03365974873304367, -0.054245367646217346, 3.7491509914398193, -42.570335388183594],
    [0.0, 0.0, 0.0, 1.0]
],
  "dcmmeta_reorient_transform": [
    [0.0, -1.0, 0.0, 63.0],
    [1.0, 0.0, 0.0, 0.0],
    [0.0, 0.0, 1.0, 0.0],
    [0.0, 0.0, 0.0, 1.0]
],
  "dcmmeta_shape": [64, 64, 33, 256],
  "dcmmeta_slice_dim": 2,
  "dcmmeta_version": 0.6,
  "global": {
    "const": {
      "AcquisitionMatrix": [0, 64, 64, 0],
      "AngioFlag": "N",
      "BitsAllocated": 16,
      "BitsStored": 12,
      "BodyPartExamined": "BRAIN",
      "Columns": 384,
      "EchoNumbers": 1,
      "EchoTime": 30.0,
      "EchoTrainLength": 31,
      "FlipAngle": 75.0,
      "HighBit": 11,
      "ImageOrientationPatient": [0.99993023263949, 0.00369368847446, -0.0112199161761, -0.0034904294527, 0.9998304185226, 0.01808178915828],
      "ImagePositionPatient": [-573.50809484839, -598.80617080182, -49.281490809184],
      "ImageType": [
        "ORIGINAL",
        "PRIMARY",
        "M",
        "ND",
        "NORM",
        "MOSAIC"
],
      "ImagedNucleus": "1H",
      "ImagingFrequency": 123.211039,
      "InPlanePhaseEncodingDirection": "ROW",
      "MRAcquisitionType": "2D",
      "MagneticFieldStrength": 3.0,
      "Manufacturer": "SIEMENS",
      "ManufacturerModelName": "Prisma_fit",
      "Modality": "MR",
      "NumberOfAverages": 1.0,
      "NumberOfPhaseEncodingSteps": 63,
      "PercentPhaseFieldOfView": 100.0,
      "PercentSampling": 100.0,
      "PerformedProcedureStepStartTime": "153227.866000",
      "PhotometricInterpretation": "MONOCHROME2",
      "PixelBandwidth": 1475.0,
      "PixelRepresentation": 0,
      "PixelSpacing": [3.0, 3.0],
      "ProtocolName": "Resting State_recovery",
      "RepetitionTime": 2000.0,
      "Rows": 384,
      "SAR": 0.09282028701105,
      "SamplesPerPixel": 1,
      "ScanOptions": "FS",
      "ScanningSequence": "EP",
      "SequenceName": "*epfid2d1_64",
      "SequenceVariant": "SK",
      "SeriesDescription": "Resting State_recovery",
      "SeriesNumber": 20,
      "SeriesTime": "172230.524000",
      "SliceLocation": -44.938975695313,
      "SliceThickness": 3.0,
      "SmallestImagePixelValue": 0,
      "SoftwareVersions": "syngo MR D13D",
      "SpacingBetweenSlices": 3.7500000394098,
      "SpecificCharacterSet": "ISO_IR 100",
      "StudyID": "1",
      "StudyTime": "153227.809000",
      "TimeOfLastCalibration": ["123723.000000", "123723.000000"],
      "TransmitCoilName": "Body",
      "VariableFlipAngleFlag": "N",
      "WindowCenterWidthExplanation": "Algo1",
      "dBdt": 0.0},
    "slices": {}
  },
  "time": {
    "samples": {
      "AcquisitionNumber": [1, 2, 3, 4, 5, 6, 7, 8, 9, 10, 11, 12, 13, 14, 15, 16, 17, 18, 19, 20, 21, 22, 23, 24, 25, 26, 27, 28, 29, 30, 31, 32, 33, 34, 35, 36, 37, 38, 39, 40, 41, 42, 43, 44, 45, 46, 47, 48, 49, 50, 51, 52, 53, 54, 55, 56, 57, 58, 59, 60, 61, 62, 63, 64, 65, 66, 67, 68, 69, 70, 71, 72, 73, 74, 75, 76, 77, 78, 79, 80, 81, 82, 83, 84, 85, 86, 87, 88, 89, 90, 91, 92, 93, 94, 95, 96, 97, 98, 99, 100, 101, 102, 103, 104, 105, 106, 107, 108, 109, 110, 111, 112, 113, 114, 115, 116, 117, 118, 119, 120, 121, 122, 123, 124, 125, 126, 127, 128, 129, 130, 131, 132, 133, 134, 135, 136, 137, 138, 139, 140, 141, 142, 143, 144, 145, 146, 147, 148, 149, 150, 151, 152, 153, 154, 155, 156, 157, 158, 159, 160, 161, 162, 163, 164, 165, 166, 167, 168, 169, 170, 171, 172, 173, 174, 175, 176, 177, 178, 179, 180, 181, 182, 183, 184, 185, 186, 187, 188, 189, 190, 191, 192, 193, 194, 195, 196, 197, 198, 199, 200, 201, 202, 203, 204, 205, 206, 207, 208, 209, 210, 211, 212, 213, 214, 215, 216, 217, 218, 219, 220, 221, 222, 223, 224, 225, 226, 227, 228, 229, 230, 231, 232, 233, 234, 235, 236, 237, 238, 239, 240, 241, 242, 243, 244, 245, 246, 247, 248, 249, 250, 251, 252, 253, 254, 255, 256],
      "AcquisitionTime": ["172139.965000", "172141.965000", "172143.965000", "172145.965000", "172147.965000", "172149.965000", "172151.965000", "172153.965000", "172155.965000", "172157.965000", "172159.965000", "172201.965000", "172203.965000", "172205.965000", "172207.965000", "172209.965000", "172211.965000", "172213.965000", "172215.965000", "172217.965000", "172219.965000", "172221.965000", "172223.965000", "172225.965000", "172227.965000", "172229.965000", "172231.965000", "172233.965000", "172235.965000", "172237.965000", "172239.965000", "172241.965000", "172243.965000", "172245.965000", "172247.965000", "172249.965000", "172251.965000", "172253.965000", "172255.965000", "172257.965000", "172259.965000", "172301.965000", "172303.965000", "172305.965000", "172307.965000", "172309.965000", "172311.965000", "172313.965000", "172315.965000", "172317.965000", "172319.965000", "172321.965000", "172323.965000", "172325.965000", "172327.965000", "172329.965000", "172331.965000", "172333.965000", "172335.965000", "172337.965000", "172339.965000", "172341.965000", "172343.965000", "172345.965000", "172347.965000", "172349.965000", "172351.965000", "172353.965000", "172355.965000", "172357.965000", "172359.965000", "172401.965000", "172403.965000", "172405.965000", "172407.965000", "172409.965000", "172411.965000", "172413.965000", "172415.965000", "172417.965000", "172419.965000", "172421.965000", "172423.965000", "172425.965000", "172427.965000", "172429.965000", "172431.965000", "172433.965000", "172435.965000", "172437.965000", "172439.965000", "172441.965000", "172443.965000", "172445.965000", "172447.965000", "172449.965000", "172451.965000", "172453.965000", "172455.965000", "172457.965000", "172459.965000", "172501.965000", "172503.965000", "172505.965000", "172507.965000", "172509.965000", "172511.965000", "172513.965000", "172515.965000", "172517.965000", "172519.965000", "172521.965000", "172523.965000", "172525.965000", "172527.965000", "172529.965000", "172531.965000", "172533.965000", "172535.965000", "172537.965000", "172539.965000", "172541.965000", "172543.965000", "172545.965000", "172547.965000", "172549.965000", "172551.965000", "172553.965000", "172555.965000", "172557.965000", "172559.965000", "172601.965000", "172603.965000", "172605.965000", "172607.965000", "172609.965000", "172611.965000", "172613.965000", "172615.965000", "172617.965000", "172619.965000", "172621.965000", "172623.965000", "172625.965000", "172627.965000", "172629.965000", "172631.965000", "172633.965000", "172635.965000", "172637.965000", "172639.965000", "172641.965000", "172643.965000", "172645.965000", "172647.965000", "172649.965000", "172651.965000", "172653.965000", "172655.965000", "172657.965000", "172659.965000", "172701.965000", "172703.967500", "172705.967500", "172707.967500", "172709.967500", "172711.967500", "172713.967500", "172715.967500", "172717.967500", "172719.967500", "172721.967500", "172723.967500", "172725.967500", "172727.967500", "172729.967500", "172731.967500", "172733.967500", "172735.967500", "172737.967500", "172739.967500", "172741.967500", "172743.967500", "172745.967500", "172747.967500", "172749.967500", "172751.967500", "172753.967500", "172755.967500", "172757.967500", "172759.967500", "172801.967500", "172803.967500", "172805.967500", "172807.967500", "172809.967500", "172811.967500", "172813.967500", "172815.967500", "172817.967500", "172819.967500", "172821.967500", "172823.967500", "172825.967500", "172827.967500", "172829.967500", "172831.967500", "172833.967500", "172835.967500", "172837.967500", "172839.967500", "172841.967500", "172843.967500", "172845.967500", "172847.967500", "172849.967500", "172851.967500", "172853.967500", "172855.967500", "172857.967500", "172859.967500", "172901.967500", "172903.967500", "172905.967500", "172907.967500", "172909.967500", "172911.967500", "172913.967500", "172915.967500", "172917.967500", "172919.967500", "172921.967500", "172923.967500", "172925.967500", "172927.967500", "172929.967500", "172931.967500", "172933.967500", "172935.967500", "172937.967500", "172939.967500", "172941.967500", "172943.967500", "172945.967500", "172947.967500", "172949.967500", "172951.967500", "172953.967500", "172955.967500", "172957.967500", "172959.967500", "173001.967500", "173003.967500", "173005.967500", "173007.967500", "173009.967500"],
      "ContentTime": ["172230.530000", "172230.534000", "172230.537000", "172230.540000", "172230.543000", "172230.546000", "172230.549000", "172230.552000", "172230.555000", "172230.558000", "172230.561000", "172230.565000", "172230.568000", "172230.571000", "172230.574000", "172230.577000", "172230.580000", "172230.583000", "172230.585000", "172230.588000", "172230.591000", "172230.594000", "172230.597000", "172230.600000", "172230.603000", "172310.521000", "172310.524000", "172310.527000", "172310.532000", "172310.537000", "172310.540000", "172310.543000", "172310.546000", "172310.549000", "172310.552000", "172310.555000", "172310.558000", "172310.561000", "172310.564000", "172310.567000", "172310.570000", "172310.573000", "172310.576000", "172310.579000", "172310.582000", "172350.522000", "172350.526000", "172350.529000", "172350.532000", "172350.535000", "172350.538000", "172350.541000", "172350.544000", "172350.547000", "172350.551000", "172350.554000", "172350.557000", "172350.560000", "172350.563000", "172350.566000", "172350.569000", "172350.572000", "172350.575000", "172350.578000", "172350.581000", "172430.522000", "172430.525000", "172430.528000", "172430.532000", "172430.535000", "172430.538000", "172430.541000", "172430.544000", "172430.547000", "172430.561000", "172430.565000", "172430.568000", "172430.571000", "172430.574000", "172430.577000", "172430.580000", "172430.583000", "172430.586000", "172430.589000", "172430.592000", "172510.520000", "172510.524000", "172510.527000", "172510.530000", "172510.533000", "172510.546000", "172510.553000", "172510.556000", "172510.559000", "172510.562000", "172510.565000", "172510.568000", "172510.571000", "172510.574000", "172510.577000", "172510.580000", "172510.583000", "172510.587000", "172510.590000", "172510.593000", "172550.523000", "172550.526000", "172550.529000", "172550.533000", "172550.536000", "172550.539000", "172550.542000", "172550.545000", "172550.548000", "172550.551000", "172550.554000", "172550.557000", "172550.560000", "172550.563000", "172550.566000", "172550.569000", "172550.573000", "172550.576000", "172550.579000", "172550.582000", "172630.522000", "172630.526000", "172630.529000", "172630.533000", "172630.536000", "172630.539000", "172630.542000", "172630.545000", "172630.548000", "172630.551000", "172630.554000", "172630.557000", "172630.560000", "172630.563000", "172630.566000", "172630.569000", "172630.572000", "172630.575000", "172630.578000", "172630.581000", "172710.522000", "172710.525000", "172710.528000", "172710.531000", "172710.535000", "172710.538000", "172710.541000", "172710.544000", "172710.547000", "172710.550000", "172710.553000", "172710.556000", "172710.559000", "172710.562000", "172710.566000", "172710.569000", "172710.571000", "172710.574000", "172710.579000", "172710.582000", "172750.521000", "172750.524000", "172750.527000", "172750.531000", "172750.533000", "172750.536000", "172750.540000", "172750.543000", "172750.546000", "172750.549000", "172750.552000", "172750.555000", "172750.558000", "172750.561000", "172750.564000", "172750.567000", "172750.570000", "172750.573000", "172750.576000", "172750.579000", "172830.523000", "172830.526000", "172830.529000", "172830.532000", "172830.535000", "172830.538000", "172830.541000", "172830.544000", "172830.547000", "172830.549000", "172830.552000", "172830.555000", "172830.558000", "172830.561000", "172830.564000", "172830.567000", "172830.571000", "172830.574000", "172830.577000", "172830.580000", "172910.523000", "172910.527000", "172910.530000", "172910.532000", "172910.535000", "172910.538000", "172910.541000", "172910.544000", "172910.547000", "172910.550000", "172910.561000", "172910.564000", "172910.567000", "172910.570000", "172910.572000", "172910.575000", "172910.578000", "172910.581000", "172910.584000", "172910.587000", "172950.522000", "172950.525000", "172950.528000", "172950.531000", "172950.534000", "172950.537000", "172950.539000", "172950.542000", "172950.545000", "172950.548000", "172950.551000", "172950.554000", "172950.557000", "172950.560000", "172950.563000", "172950.566000", "172950.568000", "172950.571000", "172950.574000", "172950.577000", "173010.835000", "173010.839000", "173010.842000", "173010.848000", "173010.852000", "173010.856000", "173010.859000", "173010.863000", "173010.868000", "173010.871000", "173010.876000"],
      "InstanceCreationTime": ["172230.530000", "172230.534000", "172230.537000", "172230.540000", "172230.543000", "172230.546000", "172230.549000", "172230.552000", "172230.555000", "172230.558000", "172230.561000", "172230.565000", "172230.568000", "172230.571000", "172230.574000", "172230.577000", "172230.580000", "172230.583000", "172230.585000", "172230.588000", "172230.591000", "172230.594000", "172230.597000", "172230.600000", "172230.603000", "172310.521000", "172310.524000", "172310.527000", "172310.532000", "172310.537000", "172310.540000", "172310.543000", "172310.546000", "172310.549000", "172310.552000", "172310.555000", "172310.558000", "172310.561000", "172310.564000", "172310.567000", "172310.570000", "172310.573000", "172310.576000", "172310.579000", "172310.582000", "172350.522000", "172350.526000", "172350.529000", "172350.532000", "172350.535000", "172350.538000", "172350.541000", "172350.544000", "172350.547000", "172350.551000", "172350.554000", "172350.557000", "172350.560000", "172350.563000", "172350.566000", "172350.569000", "172350.572000", "172350.575000", "172350.578000", "172350.581000", "172430.522000", "172430.525000", "172430.528000", "172430.532000", "172430.535000", "172430.538000", "172430.541000", "172430.544000", "172430.547000", "172430.561000", "172430.565000", "172430.568000", "172430.571000", "172430.574000", "172430.577000", "172430.580000", "172430.583000", "172430.586000", "172430.589000", "172430.592000", "172510.520000", "172510.524000", "172510.527000", "172510.530000", "172510.533000", "172510.546000", "172510.553000", "172510.556000", "172510.559000", "172510.562000", "172510.565000", "172510.568000", "172510.571000", "172510.574000", "172510.577000", "172510.580000", "172510.583000", "172510.587000", "172510.590000", "172510.593000", "172550.523000", "172550.526000", "172550.529000", "172550.533000", "172550.536000", "172550.539000", "172550.542000", "172550.545000", "172550.548000", "172550.551000", "172550.554000", "172550.557000", "172550.560000", "172550.563000", "172550.566000", "172550.569000", "172550.573000", "172550.576000", "172550.579000", "172550.582000", "172630.522000", "172630.526000", "172630.529000", "172630.533000", "172630.536000", "172630.539000", "172630.542000", "172630.545000", "172630.548000", "172630.551000", "172630.554000", "172630.557000", "172630.560000", "172630.563000", "172630.566000", "172630.569000", "172630.572000", "172630.575000", "172630.578000", "172630.581000", "172710.522000", "172710.525000", "172710.528000", "172710.531000", "172710.535000", "172710.538000", "172710.541000", "172710.544000", "172710.547000", "172710.550000", "172710.553000", "172710.556000", "172710.559000", "172710.562000", "172710.566000", "172710.569000", "172710.571000", "172710.574000", "172710.579000", "172710.582000", "172750.521000", "172750.524000", "172750.527000", "172750.531000", "172750.533000", "172750.536000", "172750.540000", "172750.543000", "172750.546000", "172750.549000", "172750.552000", "172750.555000", "172750.558000", "172750.561000", "172750.564000", "172750.567000", "172750.570000", "172750.573000", "172750.576000", "172750.579000", "172830.523000", "172830.526000", "172830.529000", "172830.532000", "172830.535000", "172830.538000", "172830.541000", "172830.544000", "172830.547000", "172830.549000", "172830.552000", "172830.555000", "172830.558000", "172830.561000", "172830.564000", "172830.567000", "172830.571000", "172830.574000", "172830.577000", "172830.580000", "172910.523000", "172910.527000", "172910.530000", "172910.532000", "172910.535000", "172910.538000", "172910.541000", "172910.544000", "172910.547000", "172910.550000", "172910.561000", "172910.564000", "172910.567000", "172910.570000", "172910.572000", "172910.575000", "172910.578000", "172910.581000", "172910.584000", "172910.587000", "172950.522000", "172950.525000", "172950.528000", "172950.531000", "172950.534000", "172950.537000", "172950.539000", "172950.542000", "172950.545000", "172950.548000", "172950.551000", "172950.554000", "172950.557000", "172950.560000", "172950.563000", "172950.566000", "172950.568000", "172950.571000", "172950.574000", "172950.577000", "173010.835000", "173010.839000", "173010.842000", "173010.848000", "173010.852000", "173010.856000", "173010.859000", "173010.863000", "173010.868000", "173010.871000", "173010.876000"],
      "InstanceNumber": [1, 2, 3, 4, 5, 6, 7, 8, 9, 10, 11, 12, 13, 14, 15, 16, 17, 18, 19, 20, 21, 22, 23, 24, 25, 26, 27, 28, 29, 30, 31, 32, 33, 34, 35, 36, 37, 38, 39, 40, 41, 42, 43, 44, 45, 46, 47, 48, 49, 50, 51, 52, 53, 54, 55, 56, 57, 58, 59, 60, 61, 62, 63, 64, 65, 66, 67, 68, 69, 70, 71, 72, 73, 74, 75, 76, 77, 78, 79, 80, 81, 82, 83, 84, 85, 86, 87, 88, 89, 90, 91, 92, 93, 94, 95, 96, 97, 98, 99, 100, 101, 102, 103, 104, 105, 106, 107, 108, 109, 110, 111, 112, 113, 114, 115, 116, 117, 118, 119, 120, 121, 122, 123, 124, 125, 126, 127, 128, 129, 130, 131, 132, 133, 134, 135, 136, 137, 138, 139, 140, 141, 142, 143, 144, 145, 146, 147, 148, 149, 150, 151, 152, 153, 154, 155, 156, 157, 158, 159, 160, 161, 162, 163, 164, 165, 166, 167, 168, 169, 170, 171, 172, 173, 174, 175, 176, 177, 178, 179, 180, 181, 182, 183, 184, 185, 186, 187, 188, 189, 190, 191, 192, 193, 194, 195, 196, 197, 198, 199, 200, 201, 202, 203, 204, 205, 206, 207, 208, 209, 210, 211, 212, 213, 214, 215, 216, 217, 218, 219, 220, 221, 222, 223, 224, 225, 226, 227, 228, 229, 230, 231, 232, 233, 234, 235, 236, 237, 238, 239, 240, 241, 242, 243, 244, 245, 246, 247, 248, 249, 250, 251, 252, 253, 254, 255, 256],
      "LargestImagePixelValue": [1185, 1361, 1059, 1211, 974, 1283, 1233, 1402, 1020, 1258, 982, 1300, 1302, 1186, 1295, 1225, 1297, 964, 919, 1228, 1274, 1384, 946, 1083, 1058, 1387, 1247, 1002, 845, 1042, 1419, 1216, 1030, 960, 850, 1010, 1175, 1345, 1170, 1076, 929, 1179, 1306, 1256, 889, 1355, 898, 1077, 1046, 1334, 1165, 969, 1200, 921, 1187, 1166, 1233, 1066, 1374, 1213, 1268, 1197, 1207, 1009, 1238, 1233, 1140, 891, 1103, 1154, 1282, 879, 1217, 1170, 1099, 844, 1449, 1108, 1107, 1093, 1008, 920, 1303, 1251, 1408, 1137, 1175, 1141, 1342, 979, 1001, 1309, 1261, 1158, 1175, 1202, 1136, 1038, 1327, 1171, 1007, 840, 900, 1497, 1126, 1073, 1224, 952, 947, 1412, 1207, 1275, 973, 1098, 895, 1352, 1341, 1274, 1085, 1090, 883, 884, 1366, 1232, 1279, 1026, 1078, 1274, 1110, 1149, 909, 1344, 1090, 1242, 1246, 1198, 1240, 903, 1071, 1038, 1162, 1236, 1415, 927, 1040, 886, 947, 1056, 1287, 1228, 1206, 1303, 1253, 1027, 1287, 1255, 1192, 957, 1302, 995, 948, 1178, 1272, 1231, 852, 1046, 1197, 1353, 1005, 1123, 1347, 1300, 1073, 917, 1419, 1116, 1228, 1274, 1001, 1064, 1149, 1271, 1029, 1085, 1316, 1248, 1414, 1242, 1145, 898, 1097, 1413, 1315, 1243, 918, 864, 1244, 1210, 1409, 1125, 1046, 1170, 1299, 1385, 1072, 1132, 1002, 1180, 981, 1259, 1405, 1253, 1068, 1275, 950, 1304, 1228, 1107, 1286, 895, 1243, 1122, 1286, 942, 871, 1286, 1347, 1115, 1004, 1241, 1165, 1372, 1265, 1077, 866, 954, 1404, 993, 1325, 1115, 1307, 865, 1219, 1176, 1297, 1225, 1211, 1197, 1100, 1155, 1247, 1345, 884, 1212, 1143, 1275],
      "WindowCenter": [486.0, 486.0, 483.0, 482.0, 481.0, 485.0, 484.0, 491.0, 481.0, 482.0, 480.0, 483.0, 482.0, 481.0, 482.0, 480.0, 481.0, 477.0, 478.0, 480.0, 480.0, 481.0, 477.0, 478.0, 479.0, 481.0, 479.0, 477.0, 477.0, 479.0, 482.0, 480.0, 479.0, 479.0, 479.0, 480.0, 482.0, 482.0, 480.0, 479.0, 479.0, 482.0, 483.0, 482.0, 478.0, 481.0, 478.0, 481.0, 480.0, 483.0, 481.0, 481.0, 483.0, 480.0, 482.0, 481.0, 482.0, 480.0, 482.0, 482.0, 482.0, 481.0, 481.0, 478.0, 480.0, 480.0, 479.0, 478.0, 480.0, 480.0, 481.0, 477.0, 481.0, 481.0, 480.0, 478.0, 484.0, 482.0, 481.0, 481.0, 481.0, 481.0, 484.0, 483.0, 483.0, 481.0, 482.0, 480.0, 482.0, 479.0, 480.0, 481.0, 484.0, 481.0, 481.0, 481.0, 480.0, 479.0, 482.0, 480.0, 480.0, 478.0, 479.0, 483.0, 481.0, 480.0, 481.0, 479.0, 479.0, 483.0, 482.0, 482.0, 478.0, 479.0, 478.0, 482.0, 483.0, 482.0, 479.0, 479.0, 478.0, 479.0, 483.0, 481.0, 481.0, 479.0, 481.0, 482.0, 480.0, 480.0, 478.0, 483.0, 481.0, 481.0, 481.0, 480.0, 481.0, 478.0, 480.0, 480.0, 482.0, 481.0, 482.0, 478.0, 479.0, 478.0, 479.0, 482.0, 484.0, 482.0, 483.0, 483.0, 483.0, 481.0, 483.0, 483.0, 482.0, 480.0, 482.0, 480.0, 479.0, 481.0, 482.0, 481.0, 478.0, 481.0, 483.0, 484.0, 480.0, 481.0, 483.0, 482.0, 481.0, 479.0, 483.0, 481.0, 482.0, 482.0, 480.0, 480.0, 481.0, 483.0, 481.0, 481.0, 483.0, 482.0, 484.0, 483.0, 482.0, 480.0, 483.0, 485.0, 483.0, 481.0, 478.0, 479.0, 482.0, 482.0, 484.0, 481.0, 481.0, 482.0, 482.0, 482.0, 480.0, 480.0, 479.0, 481.0, 480.0, 484.0, 483.0, 482.0, 479.0, 481.0, 480.0, 480.0, 480.0, 478.0, 480.0, 477.0, 480.0, 478.0, 480.0, 478.0, 478.0, 482.0, 482.0, 481.0, 480.0, 482.0, 482.0, 483.0, 482.0, 480.0, 479.0, 481.0, 484.0, 481.0, 484.0, 482.0, 482.0, 478.0, 483.0, 482.0, 483.0, 481.0, 481.0, 481.0, 480.0, 481.0, 481.0, 481.0, 477.0, 481.0, 481.0, 482.0],
      "WindowWidth": [1012.0, 1011.0, 1005.0, 1004.0, 1003.0, 1008.0, 1007.0, 1021.0, 1001.0, 1003.0, 1000.0, 1005.0, 1004.0, 1001.0, 1002.0, 1000.0, 1001.0, 995.0, 997.0, 1000.0, 1000.0, 1001.0, 995.0, 997.0, 997.0, 1000.0, 998.0, 996.0, 996.0, 999.0, 1003.0, 1000.0, 999.0, 999.0, 999.0, 1001.0, 1003.0, 1004.0, 999.0, 998.0, 999.0, 1003.0, 1005.0, 1003.0, 997.0, 1002.0, 997.0, 1002.0, 1001.0, 1004.0, 1002.0, 1001.0, 1004.0, 1001.0, 1003.0, 1002.0, 1003.0, 1000.0, 1004.0, 1002.0, 1003.0, 1002.0, 1001.0, 996.0, 999.0, 998.0, 998.0, 997.0, 999.0, 999.0, 1000.0, 995.0, 1001.0, 1001.0, 1000.0, 998.0, 1006.0, 1003.0, 1002.0, 1001.0, 1002.0, 1003.0, 1006.0, 1004.0, 1005.0, 1002.0, 1003.0, 1000.0, 1003.0, 999.0, 999.0, 1002.0, 1008.0, 1002.0, 1002.0, 1001.0, 999.0, 998.0, 1002.0, 1000.0, 999.0, 998.0, 999.0, 1005.0, 1001.0, 999.0, 1000.0, 999.0, 999.0, 1004.0, 1002.0, 1002.0, 997.0, 998.0, 996.0, 1004.0, 1005.0, 1003.0, 998.0, 998.0, 998.0, 1000.0, 1005.0, 1002.0, 1001.0, 999.0, 1001.0, 1003.0, 1000.0, 1000.0, 998.0, 1004.0, 1001.0, 1002.0, 1001.0, 1000.0, 1001.0, 997.0, 1000.0, 1000.0, 1003.0, 1001.0, 1003.0, 998.0, 998.0, 996.0, 999.0, 1003.0, 1007.0, 1004.0, 1004.0, 1005.0, 1005.0, 1002.0, 1005.0, 1004.0, 1003.0, 1000.0, 1003.0, 999.0, 998.0, 1001.0, 1003.0, 1002.0, 997.0, 1002.0, 1004.0, 1006.0, 1001.0, 1002.0, 1004.0, 1003.0, 1002.0, 999.0, 1006.0, 1002.0, 1003.0, 1002.0, 999.0, 1000.0, 1001.0, 1004.0, 1001.0, 1001.0, 1005.0, 1004.0, 1007.0, 1006.0, 1003.0, 1000.0, 1006.0, 1008.0, 1004.0, 1001.0, 997.0, 998.0, 1004.0, 1003.0, 1006.0, 1002.0, 1003.0, 1003.0, 1004.0, 1004.0, 999.0, 1000.0, 998.0, 1002.0, 1000.0, 1007.0, 1004.0, 1002.0, 999.0, 1001.0, 1000.0, 1000.0, 999.0, 997.0, 998.0, 995.0, 1000.0, 997.0, 999.0, 996.0, 998.0, 1003.0, 1003.0, 1002.0, 999.0, 1003.0, 1004.0, 1006.0, 1003.0, 999.0, 1000.0, 1002.0, 1007.0, 1001.0, 1006.0, 1002.0, 1004.0, 997.0, 1004.0, 1003.0, 1004.0, 1002.0, 1002.0, 1000.0, 1001.0, 1002.0, 1002.0, 1001.0, 994.0, 1001.0, 1001.0, 1003.0]
    },
    "slices": {}
  }
}