{
  "AcquisitionMatrixPE": 64,
  "AcquisitionNumber": 1,
  "AcquisitionTime": "17:31:22.527500",
  "BandwidthPerPixelPhaseEncode": 40.064,
  "BaseResolution": 64,
  "BodyPartExamined": "BRAIN",
  "ConsistencyInfo": "N4_VD13D_LATEST_20130810",
  "ConversionSoftware": "dcm2niix",
  "ConversionSoftwareVersion": "v1.0.20191031",
  "DerivedVendorReportedEchoSpacing": 0.000780002,
  "DeviceSerialNumber": "67007",
  "DwellTime": 5.3e-06,
  "EchoTime": 0.03,
  "EchoTrainLength": 31,
  "EffectiveEchoSpacing": 0.000390001,
  "FlipAngle": 75,
  "ImageOrientationPatientDICOM": [0.99993, 0.00369369, -0.0112199, -0.00349043, 0.99983, 0.0180818],
  "ImageType": [
    "ORIGINAL",
    "PRIMARY",
    "M",
    "ND",
    "NORM",
    "MOSAIC"
],
  "ImagingFrequency": 123.211,
  "InPlanePhaseEncodingDirectionDICOM": "ROW",
  "InstitutionAddress": "Perth_Drive_100_London_Ontario_CA_N6A_5K8",
  "InstitutionName": "Robarts_Research_Institute",
  "InstitutionalDepartmentName": "CFMM",
  "MRAcquisitionType": "2D",
  "MagneticFieldStrength": 3,
  "Manufacturer": "Siemens",
  "ManufacturersModelName": "Prisma_fit",
  "Modality": "MR",
  "ParallelReductionFactorInPlane": 2,
  "PartialFourier": 1,
  "PatientPosition": "HFS",
  "PercentPhaseFOV": 100,
  "PhaseEncodingDirection": "i",
  "PhaseEncodingSteps": 63,
  "PhaseResolution": 1,
  "PixelBandwidth": 1475,
  "ProcedureStepDescription": "Owen_Naci",
  "ProtocolName": "taken_recovery",
  "PulseSequenceDetails": "%SiemensSeq%_ep2d_bold",
  "ReceiveCoilActiveElements": "HEA;HEP",
  "ReceiveCoilName": "Head_32",
  "ReconMatrixPE": 64,
  "RefLinesPE": 24,
  "RepetitionTime": 2,
  "SAR": 0.0926481,
  "ScanOptions": "FS",
  "ScanningSequence": "EP",
  "SequenceName": "_epfid2d1_64",
  "SequenceVariant": "SK",
  "SeriesDescription": "taken_recovery",
  "SeriesNumber": 22,
  "ShimSetting": [5238, -6182, -3817, 454, 34, -33, -19, 3],
  "SliceThickness": 3,
  "SliceTiming": [1.92, 1.86, 1.8, 1.74, 1.68, 1.62, 1.56, 1.5, 1.44, 1.38, 1.32, 1.26, 1.2, 1.14, 1.08, 1.02, 0.96, 0.9, 0.84, 0.78, 0.72, 0.66, 0.6, 0.54, 0.48, 0.42, 0.36, 0.3, 0.24, 0.18, 0.12, 0.06, 0],
  "SoftwareVersions": "syngo_MR_D13D",
  "SpacingBetweenSlices": 3.75,
  "StationName": "AWP67007",
  "TaskName": "audiorecovery",
  "TotalReadoutTime": 0.0245701,
  "TxRefAmp": 271.463,
  "dcmmeta_affine": [
    [-2.999790668487549, -0.010471288114786148, -0.042318008840084076, 95.87667846679688],
    [-0.01108106505125761, 2.9994912147521973, 0.06765512377023697, -71.85334777832031],
    [-0.03365974873304367, -0.054245367646217346, 3.7491509914398193, -42.570335388183594],
    [0.0, 0.0, 0.0, 1.0]
],
  "dcmmeta_reorient_transform": [
    [0.0, -1.0, 0.0, 63.0],
    [1.0, 0.0, 0.0, 0.0],
    [0.0, 0.0, 1.0, 0.0],
    [0.0, 0.0, 0.0, 1.0]
],
  "dcmmeta_shape": [64, 64, 33, 155],
  "dcmmeta_slice_dim": 2,
  "dcmmeta_version": 0.6,
  "global": {
    "const": {
      "AcquisitionMatrix": [0, 64, 64, 0],
      "AngioFlag": "N",
      "BitsAllocated": 16,
      "BitsStored": 12,
      "BodyPartExamined": "BRAIN",
      "Columns": 384,
      "EchoNumbers": 1,
      "EchoTime": 30.0,
      "EchoTrainLength": 31,
      "FlipAngle": 75.0,
      "HighBit": 11,
      "ImageOrientationPatient": [0.99993023263949, 0.00369368847446, -0.0112199161761, -0.0034904294527, 0.9998304185226, 0.01808178915828],
      "ImagePositionPatient": [-573.50809484839, -598.80617080182, -49.281490809184],
      "ImageType": [
        "ORIGINAL",
        "PRIMARY",
        "M",
        "ND",
        "NORM",
        "MOSAIC"
],
      "ImagedNucleus": "1H",
      "ImagingFrequency": 123.211037,
      "InPlanePhaseEncodingDirection": "ROW",
      "MRAcquisitionType": "2D",
      "MagneticFieldStrength": 3.0,
      "Manufacturer": "SIEMENS",
      "ManufacturerModelName": "Prisma_fit",
      "Modality": "MR",
      "NumberOfAverages": 1.0,
      "NumberOfPhaseEncodingSteps": 63,
      "PercentPhaseFieldOfView": 100.0,
      "PercentSampling": 100.0,
      "PerformedProcedureStepStartTime": "153227.866000",
      "PhotometricInterpretation": "MONOCHROME2",
      "PixelBandwidth": 1475.0,
      "PixelRepresentation": 0,
      "PixelSpacing": [3.0, 3.0],
      "ProtocolName": "taken_recovery",
      "RepetitionTime": 2000.0,
      "Rows": 384,
      "SAR": 0.09264814043676,
      "SamplesPerPixel": 1,
      "ScanOptions": "FS",
      "ScanningSequence": "EP",
      "SequenceName": "*epfid2d1_64",
      "SequenceVariant": "SK",
      "SeriesDescription": "taken_recovery",
      "SeriesNumber": 22,
      "SeriesTime": "173213.747000",
      "SliceLocation": -44.938975695313,
      "SliceThickness": 3.0,
      "SmallestImagePixelValue": 0,
      "SoftwareVersions": "syngo MR D13D",
      "SpacingBetweenSlices": 3.7500000394098,
      "SpecificCharacterSet": "ISO_IR 100",
      "StudyID": "1",
      "StudyTime": "153227.809000",
      "TimeOfLastCalibration": ["123723.000000", "123723.000000"],
      "TransmitCoilName": "Body",
      "VariableFlipAngleFlag": "N",
      "WindowCenterWidthExplanation": "Algo1",
      "dBdt": 0.0},
    "slices": {}
  },
  "time": {
    "samples": {
      "AcquisitionNumber": [1, 2, 3, 4, 5, 6, 7, 8, 9, 10, 11, 12, 13, 14, 15, 16, 17, 18, 19, 20, 21, 22, 23, 24, 25, 26, 27, 28, 29, 30, 31, 32, 33, 34, 35, 36, 37, 38, 39, 40, 41, 42, 43, 44, 45, 46, 47, 48, 49, 50, 51, 52, 53, 54, 55, 56, 57, 58, 59, 60, 61, 62, 63, 64, 65, 66, 67, 68, 69, 70, 71, 72, 73, 74, 75, 76, 77, 78, 79, 80, 81, 82, 83, 84, 85, 86, 87, 88, 89, 90, 91, 92, 93, 94, 95, 96, 97, 98, 99, 100, 101, 102, 103, 104, 105, 106, 107, 108, 109, 110, 111, 112, 113, 114, 115, 116, 117, 118, 119, 120, 121, 122, 123, 124, 125, 126, 127, 128, 129, 130, 131, 132, 133, 134, 135, 136, 137, 138, 139, 140, 141, 142, 143, 144, 145, 146, 147, 148, 149, 150, 151, 152, 153, 154, 155],
      "AcquisitionTime": ["173122.527500", "173124.527500", "173126.527500", "173128.527500", "173130.527500", "173132.527500", "173134.527500", "173136.527500", "173138.527500", "173140.527500", "173142.527500", "173144.527500", "173146.527500", "173148.527500", "173150.527500", "173152.527500", "173154.527500", "173156.527500", "173158.527500", "173200.527500", "173202.527500", "173204.527500", "173206.527500", "173208.527500", "173210.527500", "173212.527500", "173214.527500", "173216.527500", "173218.527500", "173220.527500", "173222.527500", "173224.527500", "173226.527500", "173228.527500", "173230.527500", "173232.527500", "173234.527500", "173236.527500", "173238.527500", "173240.527500", "173242.527500", "173244.527500", "173246.527500", "173248.527500", "173250.527500", "173252.527500", "173254.527500", "173256.527500", "173258.527500", "173300.527500", "173302.527500", "173304.527500", "173306.527500", "173308.527500", "173310.527500", "173312.527500", "173314.527500", "173316.527500", "173318.527500", "173320.527500", "173322.527500", "173324.527500", "173326.527500", "173328.527500", "173330.527500", "173332.527500", "173334.527500", "173336.527500", "173338.527500", "173340.527500", "173342.527500", "173344.527500", "173346.527500", "173348.527500", "173350.527500", "173352.527500", "173354.527500", "173356.527500", "173358.527500", "173400.527500", "173402.527500", "173404.527500", "173406.527500", "173408.527500", "173410.527500", "173412.527500", "173414.527500", "173416.527500", "173418.527500", "173420.527500", "173422.527500", "173424.527500", "173426.527500", "173428.527500", "173430.527500", "173432.527500", "173434.527500", "173436.527500", "173438.527500", "173440.527500", "173442.527500", "173444.527500", "173446.527500", "173448.527500", "173450.527500", "173452.527500", "173454.527500", "173456.527500", "173458.527500", "173500.527500", "173502.527500", "173504.527500", "173506.527500", "173508.527500", "173510.527500", "173512.527500", "173514.527500", "173516.527500", "173518.527500", "173520.527500", "173522.527500", "173524.527500", "173526.527500", "173528.527500", "173530.527500", "173532.527500", "173534.527500", "173536.527500", "173538.527500", "173540.527500", "173542.527500", "173544.527500", "173546.527500", "173548.527500", "173550.527500", "173552.527500", "173554.527500", "173556.527500", "173558.527500", "173600.527500", "173602.527500", "173604.527500", "173606.527500", "173608.527500", "173610.527500", "173612.527500", "173614.527500", "173616.527500", "173618.527500", "173620.527500", "173622.527500", "173624.527500", "173626.527500", "173628.527500", "173630.527500"],
      "ContentTime": ["173213.751000", "173213.756000", "173213.758000", "173213.761000", "173213.764000", "173213.767000", "173213.770000", "173213.773000", "173213.780000", "173213.783000", "173213.786000", "173213.789000", "173213.791000", "173213.794000", "173213.797000", "173213.799000", "173213.802000", "173213.809000", "173213.811000", "173213.814000", "173213.817000", "173213.820000", "173213.823000", "173213.826000", "173213.828000", "173213.831000", "173253.746000", "173253.749000", "173253.752000", "173253.754000", "173253.757000", "173253.760000", "173253.763000", "173253.766000", "173253.769000", "173253.772000", "173253.774000", "173253.777000", "173253.780000", "173253.783000", "173253.786000", "173253.791000", "173253.794000", "173253.797000", "173253.800000", "173253.802000", "173333.745000", "173333.748000", "173333.751000", "173333.753000", "173333.756000", "173333.759000", "173333.762000", "173333.765000", "173333.768000", "173333.771000", "173333.773000", "173333.776000", "173333.779000", "173333.782000", "173333.785000", "173333.787000", "173333.790000", "173333.793000", "173333.796000", "173333.799000", "173413.745000", "173413.748000", "173413.751000", "173413.754000", "173413.757000", "173413.759000", "173413.762000", "173413.765000", "173413.768000", "173413.771000", "173413.774000", "173413.777000", "173413.780000", "173413.783000", "173413.786000", "173413.788000", "173413.791000", "173413.794000", "173413.797000", "173413.800000", "173453.746000", "173453.752000", "173453.755000", "173453.758000", "173453.761000", "173453.763000", "173453.766000", "173453.778000", "173453.781000", "173453.783000", "173453.786000", "173453.789000", "173453.792000", "173453.795000", "173453.798000", "173453.801000", "173453.803000", "173453.806000", "173453.809000", "173453.812000", "173533.746000", "173533.749000", "173533.752000", "173533.755000", "173533.758000", "173533.761000", "173533.763000", "173533.766000", "173533.769000", "173533.772000", "173533.775000", "173533.778000", "173533.780000", "173533.783000", "173533.786000", "173533.789000", "173533.792000", "173533.794000", "173533.797000", "173533.800000", "173613.746000", "173613.749000", "173613.751000", "173613.754000", "173613.757000", "173613.760000", "173613.763000", "173613.766000", "173613.769000", "173613.771000", "173613.774000", "173613.777000", "173613.780000", "173613.783000", "173613.786000", "173613.789000", "173613.792000", "173613.794000", "173613.797000", "173613.800000", "173631.118000", "173631.122000", "173631.125000", "173631.129000", "173631.131000", "173631.135000", "173631.138000", "173631.140000", "173631.143000"],
      "InstanceCreationTime": ["173213.751000", "173213.756000", "173213.758000", "173213.761000", "173213.764000", "173213.767000", "173213.770000", "173213.773000", "173213.780000", "173213.783000", "173213.786000", "173213.789000", "173213.791000", "173213.794000", "173213.797000", "173213.799000", "173213.802000", "173213.809000", "173213.811000", "173213.814000", "173213.817000", "173213.820000", "173213.823000", "173213.826000", "173213.828000", "173213.831000", "173253.746000", "173253.749000", "173253.752000", "173253.754000", "173253.757000", "173253.760000", "173253.763000", "173253.766000", "173253.769000", "173253.772000", "173253.774000", "173253.777000", "173253.780000", "173253.783000", "173253.786000", "173253.791000", "173253.794000", "173253.797000", "173253.800000", "173253.802000", "173333.745000", "173333.748000", "173333.751000", "173333.753000", "173333.756000", "173333.759000", "173333.762000", "173333.765000", "173333.768000", "173333.771000", "173333.773000", "173333.776000", "173333.779000", "173333.782000", "173333.785000", "173333.787000", "173333.790000", "173333.793000", "173333.796000", "173333.799000", "173413.745000", "173413.748000", "173413.751000", "173413.754000", "173413.757000", "173413.759000", "173413.762000", "173413.765000", "173413.768000", "173413.771000", "173413.774000", "173413.777000", "173413.780000", "173413.783000", "173413.786000", "173413.788000", "173413.791000", "173413.794000", "173413.797000", "173413.800000", "173453.746000", "173453.752000", "173453.755000", "173453.758000", "173453.761000", "173453.763000", "173453.766000", "173453.778000", "173453.781000", "173453.783000", "173453.786000", "173453.789000", "173453.792000", "173453.795000", "173453.798000", "173453.801000", "173453.803000", "173453.806000", "173453.809000", "173453.812000", "173533.746000", "173533.749000", "173533.752000", "173533.755000", "173533.758000", "173533.761000", "173533.763000", "173533.766000", "173533.769000", "173533.772000", "173533.775000", "173533.778000", "173533.780000", "173533.783000", "173533.786000", "173533.789000", "173533.792000", "173533.794000", "173533.797000", "173533.800000", "173613.746000", "173613.749000", "173613.751000", "173613.754000", "173613.757000", "173613.760000", "173613.763000", "173613.766000", "173613.769000", "173613.771000", "173613.774000", "173613.777000", "173613.780000", "173613.783000", "173613.786000", "173613.789000", "173613.792000", "173613.794000", "173613.797000", "173613.800000", "173631.118000", "173631.122000", "173631.125000", "173631.129000", "173631.131000", "173631.135000", "173631.138000", "173631.140000", "173631.143000"],
      "InstanceNumber": [1, 2, 3, 4, 5, 6, 7, 8, 9, 10, 11, 12, 13, 14, 15, 16, 17, 18, 19, 20, 21, 22, 23, 24, 25, 26, 27, 28, 29, 30, 31, 32, 33, 34, 35, 36, 37, 38, 39, 40, 41, 42, 43, 44, 45, 46, 47, 48, 49, 50, 51, 52, 53, 54, 55, 56, 57, 58, 59, 60, 61, 62, 63, 64, 65, 66, 67, 68, 69, 70, 71, 72, 73, 74, 75, 76, 77, 78, 79, 80, 81, 82, 83, 84, 85, 86, 87, 88, 89, 90, 91, 92, 93, 94, 95, 96, 97, 98, 99, 100, 101, 102, 103, 104, 105, 106, 107, 108, 109, 110, 111, 112, 113, 114, 115, 116, 117, 118, 119, 120, 121, 122, 123, 124, 125, 126, 127, 128, 129, 130, 131, 132, 133, 134, 135, 136, 137, 138, 139, 140, 141, 142, 143, 144, 145, 146, 147, 148, 149, 150, 151, 152, 153, 154, 155],
      "LargestImagePixelValue": [1322, 1209, 1316, 1158, 1306, 1003, 1045, 937, 1237, 1304, 1176, 1291, 918, 1110, 1134, 1231, 938, 1301, 916, 1405, 1285, 1329, 1108, 1046, 1337, 1088, 876, 982, 1277, 1266, 1297, 1073, 1256, 1223, 931, 1381, 1113, 1095, 912, 1100, 1128, 1242, 960, 1171, 1318, 1311, 1313, 1307, 1064, 1199, 1253, 1288, 1098, 1252, 945, 937, 1159, 1032, 1397, 1299, 1432, 1154, 1138, 1195, 1306, 887, 972, 1366, 1251, 890, 1112, 1298, 1347, 1190, 961, 916, 1443, 1249, 1311, 897, 968, 904, 1358, 1178, 1309, 1306, 1122, 969, 1032, 1352, 1289, 1191, 1293, 1168, 1238, 955, 1415, 1002, 1138, 1428, 1082, 1237, 1205, 1291, 1002, 886, 1378, 1220, 1180, 1175, 1237, 1295, 885, 1382, 1044, 924, 881, 1343, 1232, 1097, 1432, 1036, 1188, 1172, 1312, 1167, 1025, 938, 1296, 1239, 1247, 915, 1099, 1292, 1138, 949, 1377, 1196, 1436, 1274, 902, 1272, 887, 1305, 1215, 1160, 1063, 1114, 1321, 1319, 1106, 1089, 1069, 1223, 1076],
      "WindowCenter": [486.0, 483.0, 483.0, 482.0, 482.0, 480.0, 481.0, 481.0, 484.0, 484.0, 482.0, 482.0, 479.0, 482.0, 482.0, 482.0, 480.0, 483.0, 479.0, 483.0, 482.0, 482.0, 480.0, 479.0, 481.0, 479.0, 477.0, 479.0, 481.0, 481.0, 481.0, 480.0, 481.0, 481.0, 479.0, 483.0, 481.0, 481.0, 479.0, 481.0, 482.0, 483.0, 481.0, 482.0, 488.0, 487.0, 482.0, 481.0, 479.0, 482.0, 482.0, 482.0, 479.0, 481.0, 478.0, 478.0, 481.0, 482.0, 484.0, 482.0, 483.0, 481.0, 480.0, 480.0, 481.0, 479.0, 480.0, 482.0, 482.0, 479.0, 482.0, 482.0, 482.0, 481.0, 479.0, 480.0, 485.0, 483.0, 483.0, 479.0, 481.0, 480.0, 484.0, 481.0, 482.0, 482.0, 481.0, 480.0, 480.0, 483.0, 481.0, 481.0, 482.0, 480.0, 481.0, 478.0, 482.0, 479.0, 481.0, 482.0, 480.0, 481.0, 480.0, 481.0, 479.0, 479.0, 482.0, 481.0, 481.0, 480.0, 480.0, 482.0, 479.0, 482.0, 479.0, 479.0, 480.0, 483.0, 483.0, 482.0, 483.0, 481.0, 482.0, 482.0, 484.0, 481.0, 480.0, 480.0, 483.0, 482.0, 481.0, 479.0, 481.0, 482.0, 481.0, 479.0, 483.0, 482.0, 483.0, 482.0, 478.0, 482.0, 479.0, 483.0, 482.0, 481.0, 480.0, 481.0, 482.0, 481.0, 480.0, 480.0, 480.0, 481.0, 480.0],
      "WindowWidth": [1011.0, 1006.0, 1006.0, 1003.0, 1004.0, 1000.0, 1001.0, 1001.0, 1007.0, 1008.0, 1003.0, 1003.0, 998.0, 1004.0, 1004.0, 1004.0, 1000.0, 1004.0, 999.0, 1005.0, 1003.0, 1003.0, 999.0, 999.0, 1002.0, 997.0, 996.0, 998.0, 1002.0, 1001.0, 1001.0, 1000.0, 1001.0, 1000.0, 999.0, 1004.0, 1001.0, 1001.0, 998.0, 1002.0, 1003.0, 1006.0, 1002.0, 1004.0, 1016.0, 1012.0, 1003.0, 1001.0, 999.0, 1004.0, 1004.0, 1003.0, 999.0, 1001.0, 996.0, 997.0, 1002.0, 1003.0, 1006.0, 1004.0, 1005.0, 1001.0, 1000.0, 1000.0, 1000.0, 998.0, 1000.0, 1003.0, 1002.0, 999.0, 1003.0, 1003.0, 1003.0, 1000.0, 999.0, 1001.0, 1008.0, 1006.0, 1004.0, 998.0, 1001.0, 1001.0, 1006.0, 1001.0, 1003.0, 1004.0, 1001.0, 999.0, 1000.0, 1004.0, 1002.0, 1001.0, 1002.0, 999.0, 1001.0, 997.0, 1002.0, 998.0, 1001.0, 1003.0, 1000.0, 1002.0, 1000.0, 1001.0, 998.0, 998.0, 1003.0, 1001.0, 1002.0, 1000.0, 1000.0, 1002.0, 998.0, 1002.0, 998.0, 999.0, 1000.0, 1005.0, 1004.0, 1004.0, 1005.0, 1002.0, 1003.0, 1004.0, 1006.0, 1002.0, 1000.0, 1000.0, 1004.0, 1003.0, 1002.0, 998.0, 1001.0, 1002.0, 1001.0, 998.0, 1004.0, 1004.0, 1005.0, 1003.0, 996.0, 1004.0, 999.0, 1004.0, 1003.0, 1002.0, 1000.0, 1002.0, 1003.0, 1002.0, 1000.0, 1000.0, 1000.0, 1001.0, 1000.0]
    },
    "slices": {}
  }
}