{
  "AcquisitionMatrixPE": 64,
  "AcquisitionNumber": 1,
  "AcquisitionTime": "16:52:25.757500",
  "BandwidthPerPixelPhaseEncode": 40.064,
  "BaseResolution": 64,
  "BodyPartExamined": "BRAIN",
  "ConsistencyInfo": "N4_VD13D_LATEST_20130810",
  "ConversionSoftware": "dcm2niix",
  "ConversionSoftwareVersion": "v1.0.20191031",
  "DerivedVendorReportedEchoSpacing": 0.000780002,
  "DeviceSerialNumber": "67007",
  "DwellTime": 5.3e-06,
  "EchoTime": 0.03,
  "EchoTrainLength": 31,
  "EffectiveEchoSpacing": 0.000390001,
  "FlipAngle": 75,
  "ImageOrientationPatientDICOM": [0.99993, 0.00369369, -0.0112199, -0.00349043, 0.99983, 0.0180818],
  "ImageType": [
    "ORIGINAL",
    "PRIMARY",
    "M",
    "ND",
    "NORM",
    "MOSAIC"
],
  "ImagingFrequency": 123.211,
  "InPlanePhaseEncodingDirectionDICOM": "ROW",
  "InstitutionAddress": "Perth_Drive_100_London_Ontario_CA_N6A_5K8",
  "InstitutionName": "Robarts_Research_Institute",
  "InstitutionalDepartmentName": "CFMM",
  "MRAcquisitionType": "2D",
  "MagneticFieldStrength": 3,
  "Manufacturer": "Siemens",
  "ManufacturersModelName": "Prisma_fit",
  "Modality": "MR",
  "ParallelReductionFactorInPlane": 2,
  "PartialFourier": 1,
  "PatientPosition": "HFS",
  "PercentPhaseFOV": 100,
  "PhaseEncodingDirection": "i",
  "PhaseEncodingSteps": 63,
  "PhaseResolution": 1,
  "PixelBandwidth": 1475,
  "ProcedureStepDescription": "Owen_Naci",
  "ProtocolName": "Resting_State_deep_sed",
  "PulseSequenceDetails": "%SiemensSeq%_ep2d_bold",
  "ReceiveCoilActiveElements": "HEA;HEP",
  "ReceiveCoilName": "Head_32",
  "ReconMatrixPE": 64,
  "RefLinesPE": 24,
  "RepetitionTime": 2,
  "SAR": 0.0928203,
  "ScanOptions": "FS",
  "ScanningSequence": "EP",
  "SequenceName": "_epfid2d1_64",
  "SequenceVariant": "SK",
  "SeriesDescription": "Resting_State_deep_sed",
  "SeriesNumber": 13,
  "ShimSetting": [5238, -6182, -3817, 454, 34, -33, -19, 3],
  "SliceThickness": 3,
  "SliceTiming": [1.92, 1.86, 1.8, 1.74, 1.68, 1.62, 1.56, 1.5, 1.44, 1.38, 1.32, 1.26, 1.2, 1.14, 1.08, 1.02, 0.96, 0.9, 0.84, 0.78, 0.72, 0.66, 0.6, 0.54, 0.48, 0.42, 0.36, 0.3, 0.24, 0.18, 0.12, 0.06, 0],
  "SoftwareVersions": "syngo_MR_D13D",
  "SpacingBetweenSlices": 3.75,
  "StationName": "AWP67007",
  "TaskName": "restdeep",
  "TotalReadoutTime": 0.0245701,
  "TxRefAmp": 271.463,
  "dcmmeta_affine": [
    [-2.999790668487549, -0.010471288114786148, -0.042318008840084076, 95.87667846679688],
    [-0.01108106505125761, 2.9994912147521973, 0.06765512377023697, -71.85334777832031],
    [-0.03365974873304367, -0.054245367646217346, 3.7491509914398193, -42.570335388183594],
    [0.0, 0.0, 0.0, 1.0]
],
  "dcmmeta_reorient_transform": [
    [0.0, -1.0, 0.0, 63.0],
    [1.0, 0.0, 0.0, 0.0],
    [0.0, 0.0, 1.0, 0.0],
    [0.0, 0.0, 0.0, 1.0]
],
  "dcmmeta_shape": [64, 64, 33, 256],
  "dcmmeta_slice_dim": 2,
  "dcmmeta_version": 0.6,
  "global": {
    "const": {
      "AcquisitionMatrix": [0, 64, 64, 0],
      "AngioFlag": "N",
      "BitsAllocated": 16,
      "BitsStored": 12,
      "BodyPartExamined": "BRAIN",
      "Columns": 384,
      "EchoNumbers": 1,
      "EchoTime": 30.0,
      "EchoTrainLength": 31,
      "FlipAngle": 75.0,
      "HighBit": 11,
      "ImageOrientationPatient": [0.99993023263949, 0.00369368847446, -0.0112199161761, -0.0034904294527, 0.9998304185226, 0.01808178915828],
      "ImagePositionPatient": [-573.50809484839, -598.80617080182, -49.281490809184],
      "ImageType": [
        "ORIGINAL",
        "PRIMARY",
        "M",
        "ND",
        "NORM",
        "MOSAIC"
],
      "ImagedNucleus": "1H",
      "ImagingFrequency": 123.211024,
      "InPlanePhaseEncodingDirection": "ROW",
      "MRAcquisitionType": "2D",
      "MagneticFieldStrength": 3.0,
      "Manufacturer": "SIEMENS",
      "ManufacturerModelName": "Prisma_fit",
      "Modality": "MR",
      "NumberOfAverages": 1.0,
      "NumberOfPhaseEncodingSteps": 63,
      "PercentPhaseFieldOfView": 100.0,
      "PercentSampling": 100.0,
      "PerformedProcedureStepStartTime": "153227.866000",
      "PhotometricInterpretation": "MONOCHROME2",
      "PixelBandwidth": 1475.0,
      "PixelRepresentation": 0,
      "PixelSpacing": [3.0, 3.0],
      "ProtocolName": "Resting State_deep sed",
      "RepetitionTime": 2000.0,
      "Rows": 384,
      "SAR": 0.09282028701105,
      "SamplesPerPixel": 1,
      "ScanOptions": "FS",
      "ScanningSequence": "EP",
      "SequenceName": "*epfid2d1_64",
      "SequenceVariant": "SK",
      "SeriesDescription": "Resting State_deep sed",
      "SeriesNumber": 13,
      "SeriesTime": "165310.523000",
      "SliceLocation": -44.938975695313,
      "SliceThickness": 3.0,
      "SmallestImagePixelValue": 0,
      "SoftwareVersions": "syngo MR D13D",
      "SpacingBetweenSlices": 3.7500000394098,
      "SpecificCharacterSet": "ISO_IR 100",
      "StudyID": "1",
      "StudyTime": "153227.809000",
      "TimeOfLastCalibration": ["123723.000000", "123723.000000"],
      "TransmitCoilName": "Body",
      "VariableFlipAngleFlag": "N",
      "WindowCenterWidthExplanation": "Algo1",
      "dBdt": 0.0},
    "slices": {}
  },
  "time": {
    "samples": {
      "AcquisitionNumber": [1, 2, 3, 4, 5, 6, 7, 8, 9, 10, 11, 12, 13, 14, 15, 16, 17, 18, 19, 20, 21, 22, 23, 24, 25, 26, 27, 28, 29, 30, 31, 32, 33, 34, 35, 36, 37, 38, 39, 40, 41, 42, 43, 44, 45, 46, 47, 48, 49, 50, 51, 52, 53, 54, 55, 56, 57, 58, 59, 60, 61, 62, 63, 64, 65, 66, 67, 68, 69, 70, 71, 72, 73, 74, 75, 76, 77, 78, 79, 80, 81, 82, 83, 84, 85, 86, 87, 88, 89, 90, 91, 92, 93, 94, 95, 96, 97, 98, 99, 100, 101, 102, 103, 104, 105, 106, 107, 108, 109, 110, 111, 112, 113, 114, 115, 116, 117, 118, 119, 120, 121, 122, 123, 124, 125, 126, 127, 128, 129, 130, 131, 132, 133, 134, 135, 136, 137, 138, 139, 140, 141, 142, 143, 144, 145, 146, 147, 148, 149, 150, 151, 152, 153, 154, 155, 156, 157, 158, 159, 160, 161, 162, 163, 164, 165, 166, 167, 168, 169, 170, 171, 172, 173, 174, 175, 176, 177, 178, 179, 180, 181, 182, 183, 184, 185, 186, 187, 188, 189, 190, 191, 192, 193, 194, 195, 196, 197, 198, 199, 200, 201, 202, 203, 204, 205, 206, 207, 208, 209, 210, 211, 212, 213, 214, 215, 216, 217, 218, 219, 220, 221, 222, 223, 224, 225, 226, 227, 228, 229, 230, 231, 232, 233, 234, 235, 236, 237, 238, 239, 240, 241, 242, 243, 244, 245, 246, 247, 248, 249, 250, 251, 252, 253, 254, 255, 256],
      "AcquisitionTime": ["165225.757500", "165227.757500", "165229.757500", "165231.757500", "165233.757500", "165235.757500", "165237.757500", "165239.757500", "165241.757500", "165243.757500", "165245.757500", "165247.757500", "165249.757500", "165251.757500", "165253.757500", "165255.757500", "165257.757500", "165259.757500", "165301.757500", "165303.757500", "165305.757500", "165307.757500", "165309.757500", "165311.757500", "165313.757500", "165315.757500", "165317.757500", "165319.757500", "165321.757500", "165323.757500", "165325.757500", "165327.757500", "165329.757500", "165331.757500", "165333.757500", "165335.757500", "165337.757500", "165339.757500", "165341.757500", "165343.757500", "165345.757500", "165347.757500", "165349.757500", "165351.757500", "165353.757500", "165355.757500", "165357.757500", "165359.757500", "165401.757500", "165403.757500", "165405.757500", "165407.757500", "165409.757500", "165411.757500", "165413.757500", "165415.757500", "165417.757500", "165419.757500", "165421.757500", "165423.757500", "165425.757500", "165427.757500", "165429.757500", "165431.757500", "165433.757500", "165435.757500", "165437.757500", "165439.757500", "165441.757500", "165443.757500", "165445.757500", "165447.757500", "165449.757500", "165451.757500", "165453.757500", "165455.757500", "165457.757500", "165459.757500", "165501.757500", "165503.757500", "165505.757500", "165507.757500", "165509.757500", "165511.757500", "165513.757500", "165515.757500", "165517.757500", "165519.757500", "165521.757500", "165523.757500", "165525.757500", "165527.757500", "165529.757500", "165531.757500", "165533.757500", "165535.757500", "165537.757500", "165539.757500", "165541.757500", "165543.757500", "165545.757500", "165547.757500", "165549.757500", "165551.757500", "165553.757500", "165555.757500", "165557.757500", "165559.757500", "165601.757500", "165603.757500", "165605.757500", "165607.757500", "165609.757500", "165611.757500", "165613.757500", "165615.757500", "165617.757500", "165619.757500", "165621.757500", "165623.757500", "165625.757500", "165627.757500", "165629.757500", "165631.757500", "165633.757500", "165635.757500", "165637.757500", "165639.757500", "165641.757500", "165643.757500", "165645.757500", "165647.757500", "165649.757500", "165651.757500", "165653.757500", "165655.757500", "165657.757500", "165659.757500", "165701.757500", "165703.757500", "165705.757500", "165707.757500", "165709.757500", "165711.757500", "165713.757500", "165715.757500", "165717.757500", "165719.757500", "165721.757500", "165723.757500", "165725.757500", "165727.757500", "165729.757500", "165731.757500", "165733.757500", "165735.757500", "165737.757500", "165739.757500", "165741.757500", "165743.757500", "165745.757500", "165747.757500", "165749.757500", "165751.757500", "165753.757500", "165755.757500", "165757.757500", "165759.757500", "165801.757500", "165803.757500", "165805.757500", "165807.757500", "165809.757500", "165811.757500", "165813.757500", "165815.757500", "165817.757500", "165819.757500", "165821.757500", "165823.757500", "165825.757500", "165827.757500", "165829.757500", "165831.757500", "165833.757500", "165835.757500", "165837.757500", "165839.757500", "165841.757500", "165843.757500", "165845.757500", "165847.757500", "165849.757500", "165851.757500", "165853.760000", "165855.760000", "165857.760000", "165859.760000", "165901.760000", "165903.760000", "165905.760000", "165907.760000", "165909.760000", "165911.760000", "165913.760000", "165915.760000", "165917.760000", "165919.760000", "165921.760000", "165923.760000", "165925.760000", "165927.760000", "165929.760000", "165931.760000", "165933.760000", "165935.760000", "165937.760000", "165939.760000", "165941.760000", "165943.760000", "165945.760000", "165947.760000", "165949.760000", "165951.760000", "165953.760000", "165955.760000", "165957.760000", "165959.760000", "170001.760000", "170003.760000", "170005.760000", "170007.760000", "170009.760000", "170011.760000", "170013.760000", "170015.760000", "170017.760000", "170019.760000", "170021.760000", "170023.760000", "170025.760000", "170027.760000", "170029.760000", "170031.760000", "170033.760000", "170035.760000", "170037.760000", "170039.760000", "170041.760000", "170043.760000", "170045.760000", "170047.760000", "170049.760000", "170051.760000", "170053.760000", "170055.760000"],
      "ContentTime": ["165310.528000", "165310.532000", "165310.535000", "165310.537000", "165310.545000", "165310.548000", "165310.551000", "165310.553000", "165310.557000", "165310.559000", "165310.562000", "165310.565000", "165310.567000", "165310.570000", "165310.573000", "165310.576000", "165310.578000", "165310.581000", "165310.584000", "165310.586000", "165310.601000", "165310.603000", "165310.606000", "165350.521000", "165350.524000", "165350.527000", "165350.529000", "165350.533000", "165350.536000", "165350.539000", "165350.542000", "165350.544000", "165350.547000", "165350.550000", "165350.553000", "165350.555000", "165350.558000", "165350.561000", "165350.564000", "165350.567000", "165350.570000", "165350.573000", "165350.576000", "165430.523000", "165430.526000", "165430.529000", "165430.532000", "165430.535000", "165430.538000", "165430.540000", "165430.543000", "165430.546000", "165430.549000", "165430.552000", "165430.554000", "165430.557000", "165430.560000", "165430.563000", "165430.566000", "165430.569000", "165430.572000", "165430.574000", "165430.577000", "165510.521000", "165510.524000", "165510.527000", "165510.531000", "165510.534000", "165510.537000", "165510.540000", "165510.543000", "165510.545000", "165510.548000", "165510.551000", "165510.554000", "165510.557000", "165510.560000", "165510.563000", "165510.566000", "165510.569000", "165510.572000", "165510.575000", "165510.578000", "165550.522000", "165550.526000", "165550.529000", "165550.531000", "165550.534000", "165550.537000", "165550.540000", "165550.543000", "165550.546000", "165550.549000", "165550.552000", "165550.554000", "165550.557000", "165550.560000", "165550.563000", "165550.566000", "165550.569000", "165550.572000", "165550.575000", "165550.578000", "165630.522000", "165630.525000", "165630.528000", "165630.531000", "165630.534000", "165630.537000", "165630.540000", "165630.543000", "165630.546000", "165630.549000", "165630.551000", "165630.554000", "165630.557000", "165630.560000", "165630.563000", "165630.566000", "165630.569000", "165630.572000", "165630.575000", "165630.577000", "165710.523000", "165710.526000", "165710.529000", "165710.532000", "165710.535000", "165710.537000", "165710.540000", "165710.543000", "165710.546000", "165710.549000", "165710.552000", "165710.554000", "165710.557000", "165710.560000", "165710.564000", "165710.566000", "165710.569000", "165710.572000", "165710.575000", "165710.578000", "165750.521000", "165750.524000", "165750.529000", "165750.532000", "165750.535000", "165750.537000", "165750.540000", "165750.543000", "165750.546000", "165750.549000", "165750.552000", "165750.555000", "165750.558000", "165750.561000", "165750.564000", "165750.567000", "165750.570000", "165750.573000", "165750.575000", "165750.578000", "165830.522000", "165830.526000", "165830.528000", "165830.531000", "165830.534000", "165830.537000", "165830.540000", "165830.543000", "165830.546000", "165830.549000", "165830.552000", "165830.555000", "165830.557000", "165830.560000", "165830.563000", "165830.566000", "165830.569000", "165830.572000", "165830.575000", "165830.578000", "165910.522000", "165910.525000", "165910.528000", "165910.532000", "165910.535000", "165910.537000", "165910.540000", "165910.543000", "165910.546000", "165910.549000", "165910.551000", "165910.554000", "165910.557000", "165910.560000", "165910.563000", "165910.566000", "165910.569000", "165910.572000", "165910.575000", "165910.578000", "165950.521000", "165950.525000", "165950.528000", "165950.531000", "165950.533000", "165950.536000", "165950.539000", "165950.542000", "165950.545000", "165950.548000", "165950.550000", "165950.553000", "165950.556000", "165950.559000", "165950.562000", "165950.565000", "165950.568000", "165950.570000", "165950.573000", "165950.576000", "170030.521000", "170030.525000", "170030.528000", "170030.531000", "170030.534000", "170030.537000", "170030.540000", "170030.543000", "170030.546000", "170030.549000", "170030.551000", "170030.554000", "170030.557000", "170030.560000", "170030.563000", "170030.566000", "170030.569000", "170030.572000", "170030.574000", "170030.577000", "170056.496000", "170056.499000", "170056.502000", "170056.505000", "170056.508000", "170056.511000", "170056.513000", "170056.517000", "170056.520000", "170056.525000", "170056.529000", "170056.533000", "170056.537000"],
      "InstanceCreationTime": ["165310.528000", "165310.532000", "165310.535000", "165310.537000", "165310.545000", "165310.548000", "165310.551000", "165310.553000", "165310.557000", "165310.559000", "165310.562000", "165310.565000", "165310.567000", "165310.570000", "165310.573000", "165310.576000", "165310.578000", "165310.581000", "165310.584000", "165310.586000", "165310.601000", "165310.603000", "165310.606000", "165350.521000", "165350.524000", "165350.527000", "165350.529000", "165350.533000", "165350.536000", "165350.539000", "165350.542000", "165350.544000", "165350.547000", "165350.550000", "165350.553000", "165350.555000", "165350.558000", "165350.561000", "165350.564000", "165350.567000", "165350.570000", "165350.573000", "165350.576000", "165430.523000", "165430.526000", "165430.529000", "165430.532000", "165430.535000", "165430.538000", "165430.540000", "165430.543000", "165430.546000", "165430.549000", "165430.552000", "165430.554000", "165430.557000", "165430.560000", "165430.563000", "165430.566000", "165430.569000", "165430.572000", "165430.574000", "165430.577000", "165510.521000", "165510.524000", "165510.527000", "165510.531000", "165510.534000", "165510.537000", "165510.540000", "165510.543000", "165510.545000", "165510.548000", "165510.551000", "165510.554000", "165510.557000", "165510.560000", "165510.563000", "165510.566000", "165510.569000", "165510.572000", "165510.575000", "165510.578000", "165550.522000", "165550.526000", "165550.529000", "165550.531000", "165550.534000", "165550.537000", "165550.540000", "165550.543000", "165550.546000", "165550.549000", "165550.552000", "165550.554000", "165550.557000", "165550.560000", "165550.563000", "165550.566000", "165550.569000", "165550.572000", "165550.575000", "165550.578000", "165630.522000", "165630.525000", "165630.528000", "165630.531000", "165630.534000", "165630.537000", "165630.540000", "165630.543000", "165630.546000", "165630.549000", "165630.551000", "165630.554000", "165630.557000", "165630.560000", "165630.563000", "165630.566000", "165630.569000", "165630.572000", "165630.575000", "165630.577000", "165710.523000", "165710.526000", "165710.529000", "165710.532000", "165710.535000", "165710.537000", "165710.540000", "165710.543000", "165710.546000", "165710.549000", "165710.552000", "165710.554000", "165710.557000", "165710.560000", "165710.564000", "165710.566000", "165710.569000", "165710.572000", "165710.575000", "165710.578000", "165750.521000", "165750.524000", "165750.529000", "165750.532000", "165750.535000", "165750.537000", "165750.540000", "165750.543000", "165750.546000", "165750.549000", "165750.552000", "165750.555000", "165750.558000", "165750.561000", "165750.564000", "165750.567000", "165750.570000", "165750.573000", "165750.575000", "165750.578000", "165830.522000", "165830.526000", "165830.528000", "165830.531000", "165830.534000", "165830.537000", "165830.540000", "165830.543000", "165830.546000", "165830.549000", "165830.552000", "165830.555000", "165830.557000", "165830.560000", "165830.563000", "165830.566000", "165830.569000", "165830.572000", "165830.575000", "165830.578000", "165910.522000", "165910.525000", "165910.528000", "165910.532000", "165910.535000", "165910.537000", "165910.540000", "165910.543000", "165910.546000", "165910.549000", "165910.551000", "165910.554000", "165910.557000", "165910.560000", "165910.563000", "165910.566000", "165910.569000", "165910.572000", "165910.575000", "165910.578000", "165950.521000", "165950.525000", "165950.528000", "165950.531000", "165950.533000", "165950.536000", "165950.539000", "165950.542000", "165950.545000", "165950.548000", "165950.550000", "165950.553000", "165950.556000", "165950.559000", "165950.562000", "165950.565000", "165950.568000", "165950.570000", "165950.573000", "165950.576000", "170030.521000", "170030.525000", "170030.528000", "170030.531000", "170030.534000", "170030.537000", "170030.540000", "170030.543000", "170030.546000", "170030.549000", "170030.551000", "170030.554000", "170030.557000", "170030.560000", "170030.563000", "170030.566000", "170030.569000", "170030.572000", "170030.574000", "170030.577000", "170056.496000", "170056.499000", "170056.502000", "170056.505000", "170056.508000", "170056.511000", "170056.513000", "170056.517000", "170056.520000", "170056.525000", "170056.529000", "170056.533000", "170056.537000"],
      "InstanceNumber": [1, 2, 3, 4, 5, 6, 7, 8, 9, 10, 11, 12, 13, 14, 15, 16, 17, 18, 19, 20, 21, 22, 23, 24, 25, 26, 27, 28, 29, 30, 31, 32, 33, 34, 35, 36, 37, 38, 39, 40, 41, 42, 43, 44, 45, 46, 47, 48, 49, 50, 51, 52, 53, 54, 55, 56, 57, 58, 59, 60, 61, 62, 63, 64, 65, 66, 67, 68, 69, 70, 71, 72, 73, 74, 75, 76, 77, 78, 79, 80, 81, 82, 83, 84, 85, 86, 87, 88, 89, 90, 91, 92, 93, 94, 95, 96, 97, 98, 99, 100, 101, 102, 103, 104, 105, 106, 107, 108, 109, 110, 111, 112, 113, 114, 115, 116, 117, 118, 119, 120, 121, 122, 123, 124, 125, 126, 127, 128, 129, 130, 131, 132, 133, 134, 135, 136, 137, 138, 139, 140, 141, 142, 143, 144, 145, 146, 147, 148, 149, 150, 151, 152, 153, 154, 155, 156, 157, 158, 159, 160, 161, 162, 163, 164, 165, 166, 167, 168, 169, 170, 171, 172, 173, 174, 175, 176, 177, 178, 179, 180, 181, 182, 183, 184, 185, 186, 187, 188, 189, 190, 191, 192, 193, 194, 195, 196, 197, 198, 199, 200, 201, 202, 203, 204, 205, 206, 207, 208, 209, 210, 211, 212, 213, 214, 215, 216, 217, 218, 219, 220, 221, 222, 223, 224, 225, 226, 227, 228, 229, 230, 231, 232, 233, 234, 235, 236, 237, 238, 239, 240, 241, 242, 243, 244, 245, 246, 247, 248, 249, 250, 251, 252, 253, 254, 255, 256],
      "LargestImagePixelValue": [978, 859, 1260, 1207, 1285, 1262, 1051, 1287, 1107, 1020, 916, 948, 1096, 884, 1227, 938, 946, 1144, 1257, 1088, 1248, 1056, 999, 895, 1010, 1107, 1145, 1306, 881, 1099, 882, 1112, 1052, 1060, 949, 1235, 1174, 867, 1305, 937, 866, 952, 1089, 876, 882, 1151, 859, 971, 886, 858, 843, 1131, 1242, 1309, 919, 1218, 1180, 1227, 1265, 1322, 1139, 1020, 870, 916, 1300, 888, 1305, 1342, 1017, 1244, 1092, 966, 889, 1036, 1086, 946, 1325, 977, 1302, 1165, 1323, 937, 850, 957, 1066, 1320, 947, 860, 1021, 1211, 883, 858, 1117, 862, 1149, 1170, 1330, 893, 1001, 1108, 1267, 1034, 889, 882, 1244, 1245, 1367, 1282, 1480, 1336, 1445, 1263, 1164, 1350, 1111, 1175, 1404, 901, 1331, 951, 1022, 920, 1048, 885, 845, 975, 1266, 1173, 1283, 867, 888, 941, 880, 1294, 991, 936, 1119, 882, 1070, 1095, 1222, 1234, 1252, 1455, 1499, 1463, 1462, 1213, 1318, 1015, 854, 1016, 1049, 945, 860, 846, 1280, 1169, 1249, 866, 962, 976, 884, 898, 908, 1009, 1282, 1275, 1244, 1135, 1134, 1408, 1357, 1270, 1574, 1486, 1530, 1369, 1237, 1375, 1209, 1314, 1092, 872, 1114, 856, 1264, 904, 1326, 1186, 1378, 932, 898, 883, 1136, 1150, 1278, 918, 885, 1225, 1324, 1019, 1192, 1230, 1300, 1074, 981, 1071, 913, 904, 832, 947, 847, 918, 922, 895, 998, 902, 841, 1005, 852, 1129, 1225, 1340, 1194, 991, 921, 1236, 938, 907, 932, 856, 1002, 1200, 1130, 1052, 1219, 1114, 1369, 1273, 1502, 1242, 1287, 1086, 1202, 1066, 1074, 1012, 868, 839, 925, 843, 1099, 1218, 1257, 1236],
      "WindowCenter": [483.0, 481.0, 485.0, 485.0, 483.0, 485.0, 481.0, 483.0, 482.0, 481.0, 480.0, 480.0, 483.0, 483.0, 485.0, 480.0, 481.0, 484.0, 484.0, 483.0, 484.0, 481.0, 483.0, 481.0, 483.0, 483.0, 485.0, 485.0, 480.0, 482.0, 480.0, 483.0, 482.0, 482.0, 481.0, 484.0, 484.0, 482.0, 486.0, 481.0, 480.0, 481.0, 482.0, 483.0, 483.0, 486.0, 483.0, 485.0, 485.0, 485.0, 486.0, 489.0, 489.0, 489.0, 485.0, 489.0, 488.0, 488.0, 488.0, 487.0, 485.0, 483.0, 484.0, 484.0, 488.0, 485.0, 489.0, 489.0, 485.0, 488.0, 484.0, 483.0, 484.0, 485.0, 487.0, 486.0, 489.0, 486.0, 489.0, 486.0, 488.0, 483.0, 483.0, 486.0, 486.0, 488.0, 484.0, 484.0, 487.0, 487.0, 487.0, 485.0, 489.0, 487.0, 490.0, 489.0, 491.0, 486.0, 488.0, 489.0, 490.0, 487.0, 488.0, 489.0, 493.0, 492.0, 493.0, 491.0, 492.0, 489.0, 492.0, 486.0, 486.0, 486.0, 483.0, 483.0, 484.0, 480.0, 484.0, 479.0, 482.0, 479.0, 482.0, 481.0, 483.0, 485.0, 487.0, 486.0, 487.0, 484.0, 486.0, 487.0, 486.0, 490.0, 487.0, 486.0, 489.0, 488.0, 490.0, 490.0, 489.0, 491.0, 490.0, 491.0, 490.0, 488.0, 488.0, 483.0, 484.0, 481.0, 481.0, 481.0, 482.0, 481.0, 484.0, 484.0, 489.0, 486.0, 487.0, 483.0, 486.0, 485.0, 486.0, 486.0, 487.0, 489.0, 491.0, 490.0, 489.0, 489.0, 494.0, 498.0, 496.0, 499.0, 492.0, 489.0, 489.0, 486.0, 486.0, 486.0, 483.0, 482.0, 482.0, 480.0, 484.0, 481.0, 486.0, 484.0, 488.0, 484.0, 486.0, 480.0, 480.0, 481.0, 485.0, 484.0, 486.0, 482.0, 484.0, 490.0, 493.0, 487.0, 494.0, 486.0, 480.0, 480.0, 477.0, 479.0, 478.0, 480.0, 479.0, 482.0, 480.0, 483.0, 483.0, 483.0, 484.0, 485.0, 484.0, 486.0, 486.0, 490.0, 488.0, 490.0, 487.0, 486.0, 484.0, 487.0, 485.0, 485.0, 487.0, 486.0, 488.0, 489.0, 489.0, 490.0, 490.0, 488.0, 489.0, 486.0, 486.0, 483.0, 483.0, 481.0, 481.0, 479.0, 480.0, 477.0, 477.0, 478.0, 480.0, 483.0, 486.0, 487.0, 487.0, 485.0],
      "WindowWidth": [1007.0, 1004.0, 1008.0, 1009.0, 1004.0, 1009.0, 1001.0, 1006.0, 1004.0, 1001.0, 999.0, 1001.0, 1005.0, 1006.0, 1008.0, 1000.0, 1002.0, 1008.0, 1008.0, 1005.0, 1007.0, 1002.0, 1005.0, 1003.0, 1006.0, 1006.0, 1008.0, 1009.0, 1001.0, 1004.0, 1000.0, 1004.0, 1004.0, 1003.0, 1003.0, 1006.0, 1007.0, 1005.0, 1011.0, 1003.0, 1001.0, 1002.0, 1003.0, 1006.0, 1005.0, 1011.0, 1007.0, 1009.0, 1011.0, 1010.0, 1013.0, 1017.0, 1016.0, 1017.0, 1010.0, 1016.0, 1016.0, 1016.0, 1014.0, 1012.0, 1009.0, 1006.0, 1009.0, 1008.0, 1014.0, 1011.0, 1016.0, 1016.0, 1010.0, 1014.0, 1008.0, 1007.0, 1007.0, 1009.0, 1012.0, 1012.0, 1016.0, 1011.0, 1016.0, 1011.0, 1014.0, 1006.0, 1006.0, 1011.0, 1011.0, 1016.0, 1008.0, 1009.0, 1013.0, 1014.0, 1014.0, 1011.0, 1017.0, 1013.0, 1018.0, 1016.0, 1020.0, 1011.0, 1016.0, 1016.0, 1019.0, 1014.0, 1016.0, 1019.0, 1025.0, 1022.0, 1024.0, 1021.0, 1022.0, 1018.0, 1023.0, 1010.0, 1011.0, 1011.0, 1006.0, 1005.0, 1007.0, 1000.0, 1007.0, 999.0, 1003.0, 999.0, 1004.0, 1002.0, 1006.0, 1008.0, 1013.0, 1010.0, 1013.0, 1008.0, 1011.0, 1014.0, 1011.0, 1019.0, 1013.0, 1012.0, 1017.0, 1016.0, 1020.0, 1019.0, 1016.0, 1021.0, 1018.0, 1019.0, 1017.0, 1014.0, 1015.0, 1005.0, 1008.0, 1001.0, 1002.0, 1001.0, 1004.0, 1002.0, 1009.0, 1008.0, 1016.0, 1011.0, 1013.0, 1007.0, 1011.0, 1010.0, 1011.0, 1012.0, 1014.0, 1017.0, 1020.0, 1019.0, 1016.0, 1017.0, 1027.0, 1034.0, 1029.0, 1037.0, 1021.0, 1015.0, 1016.0, 1010.0, 1010.0, 1011.0, 1005.0, 1003.0, 1003.0, 1000.0, 1007.0, 1002.0, 1011.0, 1008.0, 1014.0, 1007.0, 1011.0, 1001.0, 1002.0, 1002.0, 1009.0, 1008.0, 1010.0, 1004.0, 1009.0, 1020.0, 1024.0, 1013.0, 1027.0, 1013.0, 1000.0, 999.0, 994.0, 998.0, 996.0, 1000.0, 1000.0, 1004.0, 1002.0, 1005.0, 1005.0, 1006.0, 1008.0, 1010.0, 1009.0, 1012.0, 1012.0, 1018.0, 1015.0, 1018.0, 1013.0, 1011.0, 1008.0, 1013.0, 1009.0, 1009.0, 1013.0, 1011.0, 1016.0, 1016.0, 1016.0, 1020.0, 1018.0, 1014.0, 1017.0, 1011.0, 1011.0, 1005.0, 1006.0, 1001.0, 1002.0, 998.0, 1000.0, 995.0, 994.0, 996.0, 1001.0, 1006.0, 1012.0, 1012.0, 1013.0, 1008.0]
    },
    "slices": {}
  }
}