{
  "AcquisitionMatrixPE": 64,
  "AcquisitionNumber": 1,
  "AcquisitionTime": "17:23:29.720000",
  "BandwidthPerPixelPhaseEncode": 40.064,
  "BaseResolution": 64,
  "BodyPartExamined": "BRAIN",
  "ConsistencyInfo": "N4_VD13D_LATEST_20130810",
  "ConversionSoftware": "dcm2niix",
  "ConversionSoftwareVersion": "v1.0.20191031",
  "DerivedVendorReportedEchoSpacing": 0.000780002,
  "DeviceSerialNumber": "67007",
  "DwellTime": 5.3e-06,
  "EchoTime": 0.03,
  "EchoTrainLength": 31,
  "EffectiveEchoSpacing": 0.000390001,
  "FlipAngle": 75,
  "ImageOrientationPatientDICOM": [0.999026, 0.0399292, 0.0187867, -0.040125, 0.999143, 0.0101666],
  "ImageType": [
    "ORIGINAL",
    "PRIMARY",
    "M",
    "ND",
    "NORM",
    "MOSAIC"
],
  "ImagingFrequency": 123.211,
  "InPlanePhaseEncodingDirectionDICOM": "ROW",
  "InstitutionAddress": "Perth_Drive_100_London_Ontario_CA_N6A_5K8",
  "InstitutionName": "Robarts-CFMM",
  "InstitutionalDepartmentName": "CFMM",
  "MRAcquisitionType": "2D",
  "MagneticFieldStrength": 3,
  "Manufacturer": "Siemens",
  "ManufacturersModelName": "Prisma_fit",
  "Modality": "MR",
  "ParallelReductionFactorInPlane": 2,
  "PartialFourier": 1,
  "PatientPosition": "HFS",
  "PercentPhaseFOV": 100,
  "PhaseEncodingDirection": "i",
  "PhaseEncodingSteps": 63,
  "PhaseResolution": 1,
  "PixelBandwidth": 1475,
  "ProcedureStepDescription": "Owen_Naci",
  "ProtocolName": "Resting_State_deep_sed",
  "PulseSequenceDetails": "%SiemensSeq%_ep2d_bold",
  "ReceiveCoilActiveElements": "HEA;HEP",
  "ReceiveCoilName": "Head_32",
  "ReconMatrixPE": 64,
  "RefLinesPE": 24,
  "RepetitionTime": 2,
  "SAR": 0.090657,
  "ScanOptions": "FS",
  "ScanningSequence": "EP",
  "SequenceName": "_epfid2d1_64",
  "SequenceVariant": "SK",
  "SeriesDescription": "Resting_State_deep_sed",
  "SeriesNumber": 13,
  "ShimSetting": [5236, -6206, -4093, 291, 48, -67, 40, 78],
  "SliceThickness": 3,
  "SliceTiming": [1.92, 1.86, 1.8, 1.74, 1.68, 1.62, 1.56, 1.5, 1.44, 1.38, 1.32, 1.26, 1.2, 1.14, 1.08, 1.02, 0.96, 0.9, 0.84, 0.78, 0.72, 0.66, 0.6, 0.54, 0.48, 0.42, 0.36, 0.3, 0.24, 0.18, 0.12, 0.06, 0],
  "SoftwareVersions": "syngo_MR_D13D",
  "SpacingBetweenSlices": 3.75,
  "StationName": "AWP67007",
  "TaskName": "restdeep",
  "TotalReadoutTime": 0.0245701,
  "TxRefAmp": 260.962,
  "dcmmeta_affine": [
    [-2.997077703475952, -0.12037507444620132, 0.06886753439903259, 93.86138153076172],
    [-0.11978748440742493, 2.9974288940429688, 0.04091459512710571, -69.20264434814453],
    [0.056360166519880295, -0.030499931424856186, 3.7491443157196045, -51.327613830566406],
    [0.0, 0.0, 0.0, 1.0]
],
  "dcmmeta_reorient_transform": [
    [0.0, -1.0, 0.0, 63.0],
    [1.0, 0.0, 0.0, 0.0],
    [0.0, 0.0, 1.0, 0.0],
    [0.0, 0.0, 0.0, 1.0]
],
  "dcmmeta_shape": [64, 64, 33, 256],
  "dcmmeta_slice_dim": 2,
  "dcmmeta_version": 0.6,
  "global": {
    "const": {
      "AcquisitionMatrix": [0, 64, 64, 0],
      "AngioFlag": "N",
      "BitsAllocated": 16,
      "BitsStored": 12,
      "BodyPartExamined": "BRAIN",
      "Columns": 384,
      "EchoNumbers": 1,
      "EchoTime": 30.0,
      "EchoTrainLength": 31,
      "FlipAngle": 75.0,
      "HighBit": 11,
      "ImageOrientationPatient": [0.99902588611759, 0.03992916120563, 0.01878672276838, -0.0401250239287, 0.99914294362948, 0.01016664399605],
      "ImagePositionPatient": [-546.55016322235, -618.38998520485, -67.146724675007],
      "ImageType": [
        "ORIGINAL",
        "PRIMARY",
        "M",
        "ND",
        "NORM",
        "MOSAIC"
],
      "ImagedNucleus": "1H",
      "ImagingFrequency": 123.211443,
      "InPlanePhaseEncodingDirection": "ROW",
      "MRAcquisitionType": "2D",
      "MagneticFieldStrength": 3.0,
      "Manufacturer": "SIEMENS",
      "ManufacturerModelName": "Prisma_fit",
      "Modality": "MR",
      "NumberOfAverages": 1.0,
      "NumberOfPhaseEncodingSteps": 63,
      "PercentPhaseFieldOfView": 100.0,
      "PercentSampling": 100.0,
      "PerformedProcedureStepStartTime": "160600.811000",
      "PhotometricInterpretation": "MONOCHROME2",
      "PixelBandwidth": 1475.0,
      "PixelRepresentation": 0,
      "PixelSpacing": [3.0, 3.0],
      "ProtocolName": "Resting State_deep sed",
      "RepetitionTime": 2000.0,
      "Rows": 384,
      "SAR": 0.09065696390802,
      "SamplesPerPixel": 1,
      "ScanOptions": "FS",
      "ScanningSequence": "EP",
      "SequenceName": "*epfid2d1_64",
      "SequenceVariant": "SK",
      "SeriesDescription": "Resting State_deep sed",
      "SeriesNumber": 13,
      "SeriesTime": "172410.205000",
      "SliceLocation": -50.347206784936,
      "SliceThickness": 3.0,
      "SmallestImagePixelValue": 0,
      "SoftwareVersions": "syngo MR D13D",
      "SpacingBetweenSlices": 3.7500000980463,
      "SpecificCharacterSet": "ISO_IR 100",
      "StudyID": "1",
      "StudyTime": "160600.752000",
      "TimeOfLastCalibration": ["123723.000000", "123723.000000"],
      "TransmitCoilName": "Body",
      "VariableFlipAngleFlag": "N",
      "WindowCenterWidthExplanation": "Algo1",
      "dBdt": 0.0},
    "slices": {}
  },
  "time": {
    "samples": {
      "AcquisitionNumber": [1, 2, 3, 4, 5, 6, 7, 8, 9, 10, 11, 12, 13, 14, 15, 16, 17, 18, 19, 20, 21, 22, 23, 24, 25, 26, 27, 28, 29, 30, 31, 32, 33, 34, 35, 36, 37, 38, 39, 40, 41, 42, 43, 44, 45, 46, 47, 48, 49, 50, 51, 52, 53, 54, 55, 56, 57, 58, 59, 60, 61, 62, 63, 64, 65, 66, 67, 68, 69, 70, 71, 72, 73, 74, 75, 76, 77, 78, 79, 80, 81, 82, 83, 84, 85, 86, 87, 88, 89, 90, 91, 92, 93, 94, 95, 96, 97, 98, 99, 100, 101, 102, 103, 104, 105, 106, 107, 108, 109, 110, 111, 112, 113, 114, 115, 116, 117, 118, 119, 120, 121, 122, 123, 124, 125, 126, 127, 128, 129, 130, 131, 132, 133, 134, 135, 136, 137, 138, 139, 140, 141, 142, 143, 144, 145, 146, 147, 148, 149, 150, 151, 152, 153, 154, 155, 156, 157, 158, 159, 160, 161, 162, 163, 164, 165, 166, 167, 168, 169, 170, 171, 172, 173, 174, 175, 176, 177, 178, 179, 180, 181, 182, 183, 184, 185, 186, 187, 188, 189, 190, 191, 192, 193, 194, 195, 196, 197, 198, 199, 200, 201, 202, 203, 204, 205, 206, 207, 208, 209, 210, 211, 212, 213, 214, 215, 216, 217, 218, 219, 220, 221, 222, 223, 224, 225, 226, 227, 228, 229, 230, 231, 232, 233, 234, 235, 236, 237, 238, 239, 240, 241, 242, 243, 244, 245, 246, 247, 248, 249, 250, 251, 252, 253, 254, 255, 256],
      "AcquisitionTime": ["172329.720000", "172331.720000", "172333.720000", "172335.720000", "172337.720000", "172339.720000", "172341.720000", "172343.720000", "172345.720000", "172347.720000", "172349.720000", "172351.720000", "172353.720000", "172355.720000", "172357.720000", "172359.720000", "172401.720000", "172403.720000", "172405.720000", "172407.720000", "172409.720000", "172411.720000", "172413.720000", "172415.720000", "172417.720000", "172419.720000", "172421.720000", "172423.720000", "172425.720000", "172427.720000", "172429.720000", "172431.720000", "172433.720000", "172435.720000", "172437.720000", "172439.720000", "172441.720000", "172443.720000", "172445.720000", "172447.720000", "172449.720000", "172451.720000", "172453.720000", "172455.720000", "172457.720000", "172459.720000", "172501.720000", "172503.720000", "172505.720000", "172507.720000", "172509.720000", "172511.720000", "172513.720000", "172515.720000", "172517.720000", "172519.720000", "172521.720000", "172523.720000", "172525.720000", "172527.720000", "172529.720000", "172531.720000", "172533.720000", "172535.720000", "172537.720000", "172539.720000", "172541.720000", "172543.720000", "172545.720000", "172547.720000", "172549.720000", "172551.720000", "172553.720000", "172555.720000", "172557.720000", "172559.720000", "172601.720000", "172603.720000", "172605.720000", "172607.720000", "172609.720000", "172611.720000", "172613.720000", "172615.720000", "172617.720000", "172619.720000", "172621.720000", "172623.720000", "172625.720000", "172627.720000", "172629.720000", "172631.720000", "172633.720000", "172635.720000", "172637.720000", "172639.720000", "172641.720000", "172643.720000", "172645.720000", "172647.720000", "172649.720000", "172651.720000", "172653.720000", "172655.720000", "172657.720000", "172659.720000", "172701.722500", "172703.722500", "172705.722500", "172707.722500", "172709.722500", "172711.722500", "172713.722500", "172715.722500", "172717.722500", "172719.722500", "172721.722500", "172723.722500", "172725.722500", "172727.722500", "172729.722500", "172731.722500", "172733.722500", "172735.722500", "172737.722500", "172739.722500", "172741.722500", "172743.722500", "172745.722500", "172747.722500", "172749.722500", "172751.722500", "172753.722500", "172755.722500", "172757.722500", "172759.722500", "172801.722500", "172803.722500", "172805.722500", "172807.722500", "172809.722500", "172811.722500", "172813.722500", "172815.722500", "172817.722500", "172819.722500", "172821.722500", "172823.722500", "172825.722500", "172827.722500", "172829.722500", "172831.722500", "172833.722500", "172835.722500", "172837.722500", "172839.722500", "172841.722500", "172843.722500", "172845.722500", "172847.722500", "172849.722500", "172851.722500", "172853.722500", "172855.722500", "172857.722500", "172859.722500", "172901.722500", "172903.722500", "172905.722500", "172907.722500", "172909.722500", "172911.722500", "172913.722500", "172915.722500", "172917.722500", "172919.722500", "172921.722500", "172923.722500", "172925.722500", "172927.722500", "172929.722500", "172931.722500", "172933.722500", "172935.722500", "172937.722500", "172939.722500", "172941.722500", "172943.722500", "172945.722500", "172947.722500", "172949.722500", "172951.722500", "172953.722500", "172955.722500", "172957.722500", "172959.722500", "173001.722500", "173003.722500", "173005.722500", "173007.722500", "173009.722500", "173011.722500", "173013.722500", "173015.722500", "173017.722500", "173019.722500", "173021.722500", "173023.722500", "173025.722500", "173027.722500", "173029.722500", "173031.722500", "173033.722500", "173035.722500", "173037.722500", "173039.722500", "173041.722500", "173043.722500", "173045.722500", "173047.722500", "173049.722500", "173051.722500", "173053.722500", "173055.722500", "173057.722500", "173059.722500", "173101.722500", "173103.722500", "173105.722500", "173107.722500", "173109.722500", "173111.722500", "173113.722500", "173115.722500", "173117.722500", "173119.722500", "173121.722500", "173123.722500", "173125.722500", "173127.722500", "173129.722500", "173131.722500", "173133.722500", "173135.722500", "173137.722500", "173139.722500", "173141.722500", "173143.722500", "173145.722500", "173147.722500", "173149.722500", "173151.722500", "173153.722500", "173155.722500", "173157.722500", "173159.722500"],
      "ContentTime": ["172410.209000", "172410.213000", "172410.216000", "172410.219000", "172410.221000", "172410.224000", "172410.226000", "172410.229000", "172410.232000", "172410.234000", "172410.237000", "172410.240000", "172410.243000", "172410.246000", "172410.249000", "172410.257000", "172410.260000", "172410.263000", "172410.266000", "172410.268000", "172450.204000", "172450.207000", "172450.210000", "172450.213000", "172450.215000", "172450.223000", "172450.226000", "172450.229000", "172450.231000", "172450.234000", "172450.237000", "172450.240000", "172450.242000", "172450.245000", "172450.248000", "172450.251000", "172450.254000", "172450.257000", "172450.260000", "172450.264000", "172530.203000", "172530.207000", "172530.210000", "172530.212000", "172530.215000", "172530.222000", "172530.225000", "172530.228000", "172530.231000", "172530.234000", "172530.236000", "172530.239000", "172530.242000", "172530.245000", "172530.248000", "172530.251000", "172530.254000", "172530.256000", "172530.259000", "172530.262000", "172610.204000", "172610.207000", "172610.210000", "172610.212000", "172610.215000", "172610.218000", "172610.220000", "172610.223000", "172610.226000", "172610.229000", "172610.231000", "172610.234000", "172610.237000", "172610.240000", "172610.243000", "172610.245000", "172610.248000", "172610.251000", "172610.254000", "172610.257000", "172650.204000", "172650.207000", "172650.210000", "172650.213000", "172650.215000", "172650.218000", "172650.221000", "172650.224000", "172650.227000", "172650.229000", "172650.232000", "172650.235000", "172650.238000", "172650.241000", "172650.243000", "172650.246000", "172650.249000", "172650.252000", "172650.255000", "172650.258000", "172730.204000", "172730.208000", "172730.210000", "172730.213000", "172730.216000", "172730.219000", "172730.222000", "172730.225000", "172730.228000", "172730.230000", "172730.233000", "172730.236000", "172730.239000", "172730.241000", "172730.244000", "172730.247000", "172730.250000", "172730.253000", "172730.256000", "172730.259000", "172810.203000", "172810.206000", "172810.209000", "172810.211000", "172810.214000", "172810.217000", "172810.219000", "172810.222000", "172810.225000", "172810.227000", "172810.230000", "172810.233000", "172810.236000", "172810.239000", "172810.241000", "172810.244000", "172810.247000", "172810.250000", "172810.253000", "172810.264000", "172850.203000", "172850.206000", "172850.209000", "172850.212000", "172850.215000", "172850.217000", "172850.220000", "172850.223000", "172850.225000", "172850.228000", "172850.231000", "172850.234000", "172850.236000", "172850.239000", "172850.242000", "172850.245000", "172850.248000", "172850.251000", "172850.253000", "172850.256000", "172930.203000", "172930.206000", "172930.209000", "172930.212000", "172930.215000", "172930.217000", "172930.220000", "172930.223000", "172930.226000", "172930.229000", "172930.232000", "172930.234000", "172930.237000", "172930.240000", "172930.243000", "172930.246000", "172930.249000", "172930.252000", "172930.254000", "172930.257000", "173010.203000", "173010.206000", "173010.209000", "173010.212000", "173010.215000", "173010.217000", "173010.220000", "173010.223000", "173010.225000", "173010.228000", "173010.231000", "173010.233000", "173010.236000", "173010.239000", "173010.242000", "173010.245000", "173010.248000", "173010.251000", "173010.254000", "173010.256000", "173050.203000", "173050.206000", "173050.209000", "173050.212000", "173050.214000", "173050.217000", "173050.220000", "173050.222000", "173050.225000", "173050.228000", "173050.231000", "173050.233000", "173050.236000", "173050.239000", "173050.242000", "173050.245000", "173050.248000", "173050.250000", "173050.253000", "173050.256000", "173130.202000", "173130.206000", "173130.209000", "173130.211000", "173130.214000", "173130.217000", "173130.219000", "173130.222000", "173130.225000", "173130.228000", "173130.230000", "173130.233000", "173130.236000", "173130.239000", "173130.242000", "173130.245000", "173130.247000", "173130.250000", "173130.253000", "173130.256000", "173200.698000", "173200.702000", "173200.705000", "173200.708000", "173200.711000", "173200.714000", "173200.717000", "173200.719000", "173200.724000", "173200.727000", "173200.730000", "173200.736000", "173200.742000", "173200.746000", "173200.749000", "173200.752000"],
      "InstanceCreationTime": ["172410.209000", "172410.213000", "172410.216000", "172410.219000", "172410.221000", "172410.224000", "172410.226000", "172410.229000", "172410.232000", "172410.234000", "172410.237000", "172410.240000", "172410.243000", "172410.246000", "172410.249000", "172410.257000", "172410.260000", "172410.263000", "172410.266000", "172410.268000", "172450.204000", "172450.207000", "172450.210000", "172450.213000", "172450.215000", "172450.223000", "172450.226000", "172450.229000", "172450.231000", "172450.234000", "172450.237000", "172450.240000", "172450.242000", "172450.245000", "172450.248000", "172450.251000", "172450.254000", "172450.257000", "172450.260000", "172450.264000", "172530.203000", "172530.207000", "172530.210000", "172530.212000", "172530.215000", "172530.222000", "172530.225000", "172530.228000", "172530.231000", "172530.234000", "172530.236000", "172530.239000", "172530.242000", "172530.245000", "172530.248000", "172530.251000", "172530.254000", "172530.256000", "172530.259000", "172530.262000", "172610.204000", "172610.207000", "172610.210000", "172610.212000", "172610.215000", "172610.218000", "172610.220000", "172610.223000", "172610.226000", "172610.229000", "172610.231000", "172610.234000", "172610.237000", "172610.240000", "172610.243000", "172610.245000", "172610.248000", "172610.251000", "172610.254000", "172610.257000", "172650.204000", "172650.207000", "172650.210000", "172650.213000", "172650.215000", "172650.218000", "172650.221000", "172650.224000", "172650.227000", "172650.229000", "172650.232000", "172650.235000", "172650.238000", "172650.241000", "172650.243000", "172650.246000", "172650.249000", "172650.252000", "172650.255000", "172650.258000", "172730.204000", "172730.208000", "172730.210000", "172730.213000", "172730.216000", "172730.219000", "172730.222000", "172730.225000", "172730.228000", "172730.230000", "172730.233000", "172730.236000", "172730.239000", "172730.241000", "172730.244000", "172730.247000", "172730.250000", "172730.253000", "172730.256000", "172730.259000", "172810.203000", "172810.206000", "172810.209000", "172810.211000", "172810.214000", "172810.217000", "172810.219000", "172810.222000", "172810.225000", "172810.227000", "172810.230000", "172810.233000", "172810.236000", "172810.239000", "172810.241000", "172810.244000", "172810.247000", "172810.250000", "172810.253000", "172810.264000", "172850.203000", "172850.206000", "172850.209000", "172850.212000", "172850.215000", "172850.217000", "172850.220000", "172850.223000", "172850.225000", "172850.228000", "172850.231000", "172850.234000", "172850.236000", "172850.239000", "172850.242000", "172850.245000", "172850.248000", "172850.251000", "172850.253000", "172850.256000", "172930.203000", "172930.206000", "172930.209000", "172930.212000", "172930.215000", "172930.217000", "172930.220000", "172930.223000", "172930.226000", "172930.229000", "172930.232000", "172930.234000", "172930.237000", "172930.240000", "172930.243000", "172930.246000", "172930.249000", "172930.252000", "172930.254000", "172930.257000", "173010.203000", "173010.206000", "173010.209000", "173010.212000", "173010.215000", "173010.217000", "173010.220000", "173010.223000", "173010.225000", "173010.228000", "173010.231000", "173010.233000", "173010.236000", "173010.239000", "173010.242000", "173010.245000", "173010.248000", "173010.251000", "173010.254000", "173010.256000", "173050.203000", "173050.206000", "173050.209000", "173050.212000", "173050.214000", "173050.217000", "173050.220000", "173050.222000", "173050.225000", "173050.228000", "173050.231000", "173050.233000", "173050.236000", "173050.239000", "173050.242000", "173050.245000", "173050.248000", "173050.250000", "173050.253000", "173050.256000", "173130.202000", "173130.206000", "173130.209000", "173130.211000", "173130.214000", "173130.217000", "173130.219000", "173130.222000", "173130.225000", "173130.228000", "173130.230000", "173130.233000", "173130.236000", "173130.239000", "173130.242000", "173130.245000", "173130.247000", "173130.250000", "173130.253000", "173130.256000", "173200.698000", "173200.702000", "173200.705000", "173200.708000", "173200.711000", "173200.714000", "173200.717000", "173200.719000", "173200.724000", "173200.727000", "173200.730000", "173200.736000", "173200.742000", "173200.746000", "173200.749000", "173200.752000"],
      "InstanceNumber": [1, 2, 3, 4, 5, 6, 7, 8, 9, 10, 11, 12, 13, 14, 15, 16, 17, 18, 19, 20, 21, 22, 23, 24, 25, 26, 27, 28, 29, 30, 31, 32, 33, 34, 35, 36, 37, 38, 39, 40, 41, 42, 43, 44, 45, 46, 47, 48, 49, 50, 51, 52, 53, 54, 55, 56, 57, 58, 59, 60, 61, 62, 63, 64, 65, 66, 67, 68, 69, 70, 71, 72, 73, 74, 75, 76, 77, 78, 79, 80, 81, 82, 83, 84, 85, 86, 87, 88, 89, 90, 91, 92, 93, 94, 95, 96, 97, 98, 99, 100, 101, 102, 103, 104, 105, 106, 107, 108, 109, 110, 111, 112, 113, 114, 115, 116, 117, 118, 119, 120, 121, 122, 123, 124, 125, 126, 127, 128, 129, 130, 131, 132, 133, 134, 135, 136, 137, 138, 139, 140, 141, 142, 143, 144, 145, 146, 147, 148, 149, 150, 151, 152, 153, 154, 155, 156, 157, 158, 159, 160, 161, 162, 163, 164, 165, 166, 167, 168, 169, 170, 171, 172, 173, 174, 175, 176, 177, 178, 179, 180, 181, 182, 183, 184, 185, 186, 187, 188, 189, 190, 191, 192, 193, 194, 195, 196, 197, 198, 199, 200, 201, 202, 203, 204, 205, 206, 207, 208, 209, 210, 211, 212, 213, 214, 215, 216, 217, 218, 219, 220, 221, 222, 223, 224, 225, 226, 227, 228, 229, 230, 231, 232, 233, 234, 235, 236, 237, 238, 239, 240, 241, 242, 243, 244, 245, 246, 247, 248, 249, 250, 251, 252, 253, 254, 255, 256],
      "LargestImagePixelValue": [1238, 1188, 1094, 1062, 1107, 1022, 1128, 1090, 1176, 1169, 1095, 1161, 1112, 1109, 1162, 1174, 1102, 1171, 1259, 1054, 1201, 1241, 1108, 1169, 1212, 1047, 1183, 1289, 972, 1135, 1088, 1070, 1101, 1150, 1082, 1173, 1088, 1129, 1198, 1105, 1152, 1153, 1198, 1233, 1223, 1152, 1184, 1181, 1224, 1139, 1177, 1096, 1176, 1295, 1014, 1156, 1154, 1071, 1107, 1106, 1140, 1138, 1112, 1177, 1134, 1111, 1193, 1221, 1259, 1032, 1175, 1067, 1178, 1272, 1058, 1216, 1083, 1157, 1194, 1024, 1035, 1088, 1066, 1109, 1118, 1266, 1083, 1121, 1074, 1168, 1133, 1161, 1203, 1095, 1240, 1068, 1193, 1272, 1069, 1129, 1120, 1136, 1142, 1065, 1191, 1016, 1077, 1122, 1149, 1180, 1143, 1232, 1094, 1126, 1059, 1128, 1249, 1063, 1116, 1116, 1166, 1124, 1189, 1243, 1028, 1155, 1094, 1125, 1158, 1067, 1160, 1210, 1105, 1154, 1097, 1187, 1169, 1051, 1170, 1089, 1142, 1141, 1143, 1136, 1226, 1228, 1050, 1091, 1144, 1023, 1060, 1136, 1067, 1228, 1034, 1130, 1119, 1134, 1107, 1241, 1262, 1036, 1139, 1114, 1191, 1226, 1038, 1143, 1070, 1153, 1218, 1029, 1127, 1078, 1076, 1149, 1036, 1236, 1110, 1201, 1133, 1056, 1182, 1160, 1062, 1158, 1247, 1055, 1137, 1070, 1164, 1274, 1008, 1235, 1005, 1153, 1142, 1257, 1282, 1113, 1144, 1135, 1057, 1086, 1233, 970, 1094, 1134, 1119, 1158, 1136, 1194, 1122, 1150, 1196, 1277, 1088, 1146, 1138, 1204, 1189, 1042, 1144, 1081, 1116, 1105, 1026, 1154, 1175, 1049, 1122, 1076, 1125, 1152, 1204, 1182, 1075, 1059, 1130, 1069, 1094, 1149, 1229, 1116, 1152, 1210, 1133, 1113, 1129, 1035, 1121, 1149, 1195, 1249, 1069, 1157],
      "WindowCenter": [506.0, 504.0, 504.0, 504.0, 505.0, 505.0, 507.0, 507.0, 508.0, 507.0, 507.0, 508.0, 507.0, 507.0, 507.0, 508.0, 507.0, 507.0, 508.0, 507.0, 508.0, 508.0, 506.0, 506.0, 506.0, 505.0, 507.0, 508.0, 506.0, 508.0, 508.0, 507.0, 507.0, 508.0, 506.0, 507.0, 507.0, 507.0, 508.0, 508.0, 508.0, 508.0, 509.0, 508.0, 507.0, 506.0, 506.0, 506.0, 506.0, 506.0, 507.0, 507.0, 507.0, 508.0, 506.0, 507.0, 507.0, 507.0, 506.0, 506.0, 506.0, 507.0, 507.0, 507.0, 507.0, 506.0, 508.0, 507.0, 507.0, 506.0, 507.0, 507.0, 509.0, 509.0, 508.0, 509.0, 507.0, 508.0, 507.0, 506.0, 506.0, 507.0, 507.0, 508.0, 508.0, 509.0, 508.0, 508.0, 508.0, 509.0, 508.0, 508.0, 509.0, 507.0, 509.0, 507.0, 508.0, 507.0, 507.0, 507.0, 507.0, 508.0, 508.0, 508.0, 509.0, 508.0, 509.0, 509.0, 509.0, 509.0, 509.0, 509.0, 508.0, 508.0, 507.0, 507.0, 508.0, 507.0, 508.0, 509.0, 509.0, 509.0, 509.0, 510.0, 507.0, 508.0, 508.0, 508.0, 508.0, 507.0, 508.0, 508.0, 507.0, 508.0, 507.0, 507.0, 508.0, 507.0, 508.0, 507.0, 508.0, 508.0, 509.0, 509.0, 509.0, 509.0, 508.0, 508.0, 508.0, 507.0, 508.0, 509.0, 508.0, 508.0, 508.0, 509.0, 509.0, 510.0, 509.0, 510.0, 510.0, 509.0, 510.0, 509.0, 509.0, 509.0, 508.0, 509.0, 508.0, 509.0, 509.0, 508.0, 509.0, 509.0, 509.0, 509.0, 508.0, 509.0, 507.0, 508.0, 508.0, 507.0, 508.0, 507.0, 507.0, 508.0, 509.0, 508.0, 508.0, 508.0, 508.0, 510.0, 508.0, 510.0, 509.0, 510.0, 510.0, 510.0, 509.0, 508.0, 509.0, 509.0, 508.0, 508.0, 509.0, 508.0, 510.0, 510.0, 509.0, 509.0, 508.0, 509.0, 508.0, 509.0, 508.0, 508.0, 506.0, 507.0, 507.0, 508.0, 508.0, 507.0, 509.0, 508.0, 509.0, 510.0, 510.0, 509.0, 510.0, 508.0, 509.0, 509.0, 510.0, 509.0, 510.0, 509.0, 509.0, 509.0, 510.0, 509.0, 509.0, 509.0, 509.0, 509.0, 510.0, 510.0, 510.0, 509.0, 509.0, 509.0, 510.0, 510.0, 511.0, 511.0, 510.0, 511.0],
      "WindowWidth": [1051.0, 1048.0, 1048.0, 1048.0, 1050.0, 1051.0, 1053.0, 1053.0, 1055.0, 1054.0, 1053.0, 1055.0, 1054.0, 1055.0, 1054.0, 1055.0, 1054.0, 1054.0, 1055.0, 1053.0, 1055.0, 1055.0, 1053.0, 1052.0, 1052.0, 1051.0, 1053.0, 1055.0, 1053.0, 1055.0, 1056.0, 1054.0, 1054.0, 1055.0, 1053.0, 1054.0, 1053.0, 1055.0, 1056.0, 1056.0, 1056.0, 1055.0, 1056.0, 1055.0, 1054.0, 1052.0, 1052.0, 1052.0, 1052.0, 1052.0, 1053.0, 1053.0, 1053.0, 1055.0, 1052.0, 1054.0, 1054.0, 1053.0, 1052.0, 1052.0, 1052.0, 1053.0, 1054.0, 1054.0, 1054.0, 1053.0, 1055.0, 1054.0, 1053.0, 1051.0, 1054.0, 1053.0, 1056.0, 1056.0, 1055.0, 1057.0, 1054.0, 1055.0, 1054.0, 1052.0, 1053.0, 1054.0, 1053.0, 1055.0, 1056.0, 1056.0, 1056.0, 1056.0, 1056.0, 1057.0, 1056.0, 1056.0, 1057.0, 1055.0, 1057.0, 1054.0, 1055.0, 1054.0, 1053.0, 1054.0, 1054.0, 1055.0, 1056.0, 1056.0, 1057.0, 1056.0, 1057.0, 1057.0, 1057.0, 1057.0, 1057.0, 1058.0, 1056.0, 1055.0, 1055.0, 1055.0, 1056.0, 1055.0, 1056.0, 1057.0, 1057.0, 1057.0, 1058.0, 1059.0, 1055.0, 1056.0, 1055.0, 1055.0, 1056.0, 1055.0, 1056.0, 1056.0, 1055.0, 1055.0, 1054.0, 1054.0, 1055.0, 1053.0, 1056.0, 1053.0, 1056.0, 1056.0, 1058.0, 1057.0, 1057.0, 1057.0, 1055.0, 1056.0, 1056.0, 1054.0, 1055.0, 1057.0, 1055.0, 1056.0, 1055.0, 1057.0, 1057.0, 1059.0, 1058.0, 1060.0, 1059.0, 1057.0, 1059.0, 1057.0, 1058.0, 1058.0, 1055.0, 1057.0, 1056.0, 1058.0, 1058.0, 1057.0, 1058.0, 1057.0, 1058.0, 1057.0, 1056.0, 1057.0, 1054.0, 1055.0, 1055.0, 1054.0, 1055.0, 1054.0, 1055.0, 1055.0, 1057.0, 1056.0, 1056.0, 1056.0, 1056.0, 1059.0, 1056.0, 1060.0, 1057.0, 1059.0, 1059.0, 1059.0, 1058.0, 1056.0, 1057.0, 1057.0, 1057.0, 1056.0, 1058.0, 1057.0, 1059.0, 1059.0, 1058.0, 1058.0, 1056.0, 1058.0, 1056.0, 1057.0, 1056.0, 1055.0, 1053.0, 1054.0, 1054.0, 1056.0, 1056.0, 1055.0, 1057.0, 1056.0, 1058.0, 1059.0, 1059.0, 1058.0, 1060.0, 1056.0, 1057.0, 1058.0, 1059.0, 1058.0, 1059.0, 1058.0, 1057.0, 1058.0, 1059.0, 1058.0, 1059.0, 1059.0, 1058.0, 1058.0, 1059.0, 1060.0, 1059.0, 1057.0, 1058.0, 1058.0, 1059.0, 1060.0, 1060.0, 1061.0, 1059.0, 1061.0]
    },
    "slices": {}
  }
}