{
  "AcquisitionMatrixPE": 64,
  "AcquisitionNumber": 1,
  "AcquisitionTime": "16:22:25.472500",
  "BandwidthPerPixelPhaseEncode": 40.064,
  "BaseResolution": 64,
  "BodyPartExamined": "BRAIN",
  "ConsistencyInfo": "N4_VD13D_LATEST_20130810",
  "ConversionSoftware": "dcm2niix",
  "ConversionSoftwareVersion": "v1.0.20191031",
  "DerivedVendorReportedEchoSpacing": 0.000780002,
  "DeviceSerialNumber": "67007",
  "DwellTime": 5.3e-06,
  "EchoTime": 0.03,
  "EchoTrainLength": 31,
  "EffectiveEchoSpacing": 0.000390001,
  "FlipAngle": 75,
  "ImageOrientationPatientDICOM": [0.999026, 0.0399292, 0.0187867, -0.040125, 0.999143, 0.0101666],
  "ImageType": [
    "ORIGINAL",
    "PRIMARY",
    "M",
    "ND",
    "NORM",
    "MOSAIC"
],
  "ImagingFrequency": 123.211,
  "InPlanePhaseEncodingDirectionDICOM": "ROW",
  "InstitutionAddress": "Perth_Drive_100_London_Ontario_CA_N6A_5K8",
  "InstitutionName": "Robarts-CFMM",
  "InstitutionalDepartmentName": "CFMM",
  "MRAcquisitionType": "2D",
  "MagneticFieldStrength": 3,
  "Manufacturer": "Siemens",
  "ManufacturersModelName": "Prisma_fit",
  "Modality": "MR",
  "ParallelReductionFactorInPlane": 2,
  "PartialFourier": 1,
  "PatientPosition": "HFS",
  "PercentPhaseFOV": 100,
  "PhaseEncodingDirection": "i",
  "PhaseEncodingSteps": 63,
  "PhaseResolution": 1,
  "PixelBandwidth": 1475,
  "ProcedureStepDescription": "Owen_Naci",
  "ProtocolName": "Resting_State",
  "PulseSequenceDetails": "%SiemensSeq%_ep2d_bold",
  "ReceiveCoilActiveElements": "HEA;HEP",
  "ReceiveCoilName": "Head_32",
  "ReconMatrixPE": 64,
  "RefLinesPE": 24,
  "RepetitionTime": 2,
  "SAR": 0.090657,
  "ScanOptions": "FS",
  "ScanningSequence": "EP",
  "SequenceName": "_epfid2d1_64",
  "SequenceVariant": "SK",
  "SeriesDescription": "Resting_State",
  "SeriesNumber": 5,
  "ShimSetting": [5236, -6206, -4093, 291, 48, -67, 40, 78],
  "SliceThickness": 3,
  "SliceTiming": [1.92, 1.86, 1.8, 1.74, 1.68, 1.62, 1.56, 1.5, 1.44, 1.38, 1.32, 1.26, 1.2, 1.14, 1.08, 1.02, 0.96, 0.9, 0.84, 0.78, 0.72, 0.66, 0.6, 0.54, 0.48, 0.42, 0.36, 0.3, 0.24, 0.18, 0.12, 0.06, 0],
  "SoftwareVersions": "syngo_MR_D13D",
  "SpacingBetweenSlices": 3.75,
  "StationName": "AWP67007",
  "TaskName": "rest",
  "TotalReadoutTime": 0.0245701,
  "TxRefAmp": 260.962,
  "dcmmeta_affine": [
    [-2.997077703475952, -0.12037507444620132, 0.06886753439903259, 93.86138153076172],
    [-0.11978748440742493, 2.9974288940429688, 0.04091459512710571, -69.20264434814453],
    [0.056360166519880295, -0.030499931424856186, 3.7491443157196045, -51.327613830566406],
    [0.0, 0.0, 0.0, 1.0]
],
  "dcmmeta_reorient_transform": [
    [0.0, -1.0, 0.0, 63.0],
    [1.0, 0.0, 0.0, 0.0],
    [0.0, 0.0, 1.0, 0.0],
    [0.0, 0.0, 0.0, 1.0]
],
  "dcmmeta_shape": [64, 64, 33, 138],
  "dcmmeta_slice_dim": 2,
  "dcmmeta_version": 0.6,
  "global": {
    "const": {
      "AcquisitionMatrix": [0, 64, 64, 0],
      "AngioFlag": "N",
      "BitsAllocated": 16,
      "BitsStored": 12,
      "BodyPartExamined": "BRAIN",
      "Columns": 384,
      "EchoNumbers": 1,
      "EchoTime": 30.0,
      "EchoTrainLength": 31,
      "FlipAngle": 75.0,
      "HighBit": 11,
      "ImageOrientationPatient": [0.99902588611759, 0.03992916120563, 0.01878672276838, -0.0401250239287, 0.99914294362948, 0.01016664399605],
      "ImagePositionPatient": [-546.55016322235, -618.38998520485, -67.146724675007],
      "ImageType": [
        "ORIGINAL",
        "PRIMARY",
        "M",
        "ND",
        "NORM",
        "MOSAIC"
],
      "ImagedNucleus": "1H",
      "ImagingFrequency": 123.211433,
      "InPlanePhaseEncodingDirection": "ROW",
      "MRAcquisitionType": "2D",
      "MagneticFieldStrength": 3.0,
      "Manufacturer": "SIEMENS",
      "ManufacturerModelName": "Prisma_fit",
      "Modality": "MR",
      "NumberOfAverages": 1.0,
      "NumberOfPhaseEncodingSteps": 63,
      "PercentPhaseFieldOfView": 100.0,
      "PercentSampling": 100.0,
      "PerformedProcedureStepStartTime": "160600.811000",
      "PhotometricInterpretation": "MONOCHROME2",
      "PixelBandwidth": 1475.0,
      "PixelRepresentation": 0,
      "PixelSpacing": [3.0, 3.0],
      "ProtocolName": "Resting State",
      "RepetitionTime": 2000.0,
      "Rows": 384,
      "SAR": 0.09065696390802,
      "SamplesPerPixel": 1,
      "ScanOptions": "FS",
      "ScanningSequence": "EP",
      "SequenceName": "*epfid2d1_64",
      "SequenceVariant": "SK",
      "SeriesDescription": "Resting State",
      "SeriesNumber": 5,
      "SeriesTime": "162308.015000",
      "SliceLocation": -50.347206784936,
      "SliceThickness": 3.0,
      "SmallestImagePixelValue": 0,
      "SoftwareVersions": "syngo MR D13D",
      "SpacingBetweenSlices": 3.7500000980463,
      "SpecificCharacterSet": "ISO_IR 100",
      "StudyID": "1",
      "StudyTime": "160600.752000",
      "TimeOfLastCalibration": ["123723.000000", "123723.000000"],
      "TransmitCoilName": "Body",
      "VariableFlipAngleFlag": "N",
      "WindowCenterWidthExplanation": "Algo1",
      "dBdt": 0.0},
    "slices": {}
  },
  "time": {
    "samples": {
      "AcquisitionNumber": [1, 3, 4, 5, 6, 11, 14, 15, 18, 19, 21, 26, 27, 29, 30, 31, 32, 35, 36, 39, 45, 47, 48, 49, 50, 51, 52, 53, 55, 56, 61, 65, 66, 68, 69, 70, 71, 72, 74, 75, 77, 78, 79, 81, 82, 83, 84, 85, 86, 88, 89, 93, 95, 96, 98, 99, 100, 101, 105, 106, 107, 109, 111, 115, 116, 117, 118, 119, 122, 123, 124, 125, 127, 128, 130, 131, 133, 134, 135, 136, 139, 141, 144, 145, 148, 149, 152, 153, 155, 156, 157, 165, 166, 168, 169, 170, 171, 174, 177, 181, 187, 188, 190, 191, 192, 193, 194, 196, 197, 198, 201, 202, 205, 206, 207, 208, 209, 215, 216, 217, 219, 224, 225, 228, 229, 232, 233, 234, 237, 238, 239, 240, 243, 246, 252, 253, 254, 256],
      "AcquisitionTime": ["162225.472500", "162229.472500", "162231.472500", "162233.472500", "162235.472500", "162245.472500", "162251.472500", "162253.472500", "162259.472500", "162301.472500", "162305.472500", "162315.472500", "162317.472500", "162321.472500", "162323.472500", "162325.472500", "162327.472500", "162333.472500", "162335.472500", "162341.472500", "162353.472500", "162357.472500", "162359.472500", "162401.472500", "162403.472500", "162405.472500", "162407.472500", "162409.472500", "162413.472500", "162415.472500", "162425.472500", "162433.472500", "162435.472500", "162439.472500", "162441.472500", "162443.472500", "162445.472500", "162447.472500", "162451.472500", "162453.472500", "162457.472500", "162459.472500", "162501.472500", "162505.472500", "162507.472500", "162509.472500", "162511.472500", "162513.472500", "162515.472500", "162519.472500", "162521.472500", "162529.472500", "162533.472500", "162535.472500", "162539.472500", "162541.472500", "162543.472500", "162545.472500", "162553.472500", "162555.472500", "162557.472500", "162601.472500", "162605.472500", "162613.472500", "162615.472500", "162617.472500", "162619.472500", "162621.472500", "162627.472500", "162629.472500", "162631.472500", "162633.472500", "162637.472500", "162639.472500", "162643.472500", "162645.472500", "162649.472500", "162651.472500", "162653.472500", "162655.472500", "162701.472500", "162705.472500", "162711.472500", "162713.475000", "162719.475000", "162721.475000", "162727.475000", "162729.475000", "162733.475000", "162735.475000", "162737.475000", "162753.475000", "162755.475000", "162759.475000", "162801.475000", "162803.475000", "162805.475000", "162811.475000", "162817.475000", "162825.475000", "162837.475000", "162839.475000", "162843.475000", "162845.475000", "162847.475000", "162849.475000", "162851.475000", "162855.475000", "162857.475000", "162859.475000", "162905.475000", "162907.475000", "162913.475000", "162915.475000", "162917.475000", "162919.475000", "162921.475000", "162933.475000", "162935.475000", "162937.475000", "162941.475000", "162951.475000", "162953.475000", "162959.475000", "163001.475000", "163007.475000", "163009.475000", "163011.475000", "163017.475000", "163019.475000", "163021.475000", "163023.475000", "163029.475000", "163035.475000", "163047.475000", "163049.475000", "163051.475000", "163055.475000"],
      "ContentTime": ["162308.020000", "162308.027000", "162308.030000", "162308.033000", "162308.035000", "162308.057000", "162308.071000", "162308.073000", "162308.081000", "162308.084000", "162308.090000", "162348.013000", "162348.016000", "162348.022000", "162348.024000", "162348.027000", "162348.029000", "162348.037000", "162348.040000", "162348.048000", "162428.011000", "162428.017000", "162428.019000", "162428.022000", "162428.025000", "162428.028000", "162428.031000", "162428.033000", "162428.039000", "162428.042000", "162428.056000", "162508.010000", "162508.013000", "162508.019000", "162508.021000", "162508.024000", "162508.027000", "162508.029000", "162508.034000", "162508.037000", "162508.042000", "162508.045000", "162508.048000", "162508.053000", "162548.002000", "162548.005000", "162548.008000", "162548.011000", "162548.014000", "162548.019000", "162548.022000", "162548.034000", "162548.039000", "162548.042000", "162548.048000", "162548.051000", "162548.054000", "162548.057000", "162628.011000", "162628.014000", "162628.017000", "162628.022000", "162628.028000", "162628.039000", "162628.042000", "162628.045000", "162628.048000", "162628.051000", "162708.002000", "162708.006000", "162708.009000", "162708.011000", "162708.017000", "162708.020000", "162708.026000", "162708.029000", "162708.034000", "162708.037000", "162708.039000", "162708.043000", "162708.051000", "162708.057000", "162748.008000", "162748.011000", "162748.025000", "162748.028000", "162748.037000", "162748.040000", "162748.046000", "162748.049000", "162748.051000", "162828.012000", "162828.015000", "162828.020000", "162828.023000", "162828.025000", "162828.028000", "162828.036000", "162828.047000", "162828.064000", "162908.016000", "162908.019000", "162908.024000", "162908.027000", "162908.030000", "162908.032000", "162908.035000", "162908.041000", "162908.044000", "162908.046000", "162908.055000", "162928.003000", "162928.012000", "162928.015000", "162928.017000", "162928.020000", "162928.023000", "163008.012000", "163008.015000", "163008.017000", "163008.023000", "163008.037000", "163008.040000", "163008.048000", "163008.051000", "163048.001000", "163048.005000", "163048.014000", "163048.022000", "163048.025000", "163048.028000", "163048.031000", "163048.040000", "163048.048000", "163056.330000", "163056.334000", "163056.336000", "163056.342000"],
      "InstanceCreationTime": ["162308.020000", "162308.027000", "162308.030000", "162308.033000", "162308.035000", "162308.057000", "162308.071000", "162308.073000", "162308.081000", "162308.084000", "162308.090000", "162348.013000", "162348.016000", "162348.022000", "162348.024000", "162348.027000", "162348.029000", "162348.037000", "162348.040000", "162348.048000", "162428.011000", "162428.017000", "162428.019000", "162428.022000", "162428.025000", "162428.028000", "162428.031000", "162428.033000", "162428.039000", "162428.042000", "162428.056000", "162508.010000", "162508.013000", "162508.019000", "162508.021000", "162508.024000", "162508.027000", "162508.029000", "162508.034000", "162508.037000", "162508.042000", "162508.045000", "162508.048000", "162508.053000", "162548.002000", "162548.005000", "162548.008000", "162548.011000", "162548.014000", "162548.019000", "162548.022000", "162548.034000", "162548.039000", "162548.042000", "162548.048000", "162548.051000", "162548.054000", "162548.057000", "162628.011000", "162628.014000", "162628.017000", "162628.022000", "162628.028000", "162628.039000", "162628.042000", "162628.045000", "162628.048000", "162628.051000", "162708.002000", "162708.006000", "162708.009000", "162708.011000", "162708.017000", "162708.020000", "162708.026000", "162708.029000", "162708.034000", "162708.037000", "162708.039000", "162708.043000", "162708.051000", "162708.057000", "162748.008000", "162748.011000", "162748.025000", "162748.028000", "162748.037000", "162748.040000", "162748.046000", "162748.049000", "162748.051000", "162828.012000", "162828.015000", "162828.020000", "162828.023000", "162828.025000", "162828.028000", "162828.036000", "162828.047000", "162828.064000", "162908.016000", "162908.019000", "162908.024000", "162908.027000", "162908.030000", "162908.032000", "162908.035000", "162908.041000", "162908.044000", "162908.046000", "162908.055000", "162928.003000", "162928.012000", "162928.015000", "162928.017000", "162928.020000", "162928.023000", "163008.012000", "163008.015000", "163008.017000", "163008.023000", "163008.037000", "163008.040000", "163008.048000", "163008.051000", "163048.001000", "163048.005000", "163048.014000", "163048.022000", "163048.025000", "163048.028000", "163048.031000", "163048.040000", "163048.048000", "163056.330000", "163056.334000", "163056.336000", "163056.342000"],
      "InstanceNumber": [1, 3, 4, 5, 6, 11, 14, 15, 18, 19, 21, 26, 27, 29, 30, 31, 32, 35, 36, 39, 45, 47, 48, 49, 50, 51, 52, 53, 55, 56, 61, 65, 66, 68, 69, 70, 71, 72, 74, 75, 77, 78, 79, 81, 82, 83, 84, 85, 86, 88, 89, 93, 95, 96, 98, 99, 100, 101, 105, 106, 107, 109, 111, 115, 116, 117, 118, 119, 122, 123, 124, 125, 127, 128, 130, 131, 133, 134, 135, 136, 139, 141, 144, 145, 148, 149, 152, 153, 155, 156, 157, 165, 166, 168, 169, 170, 171, 174, 177, 181, 187, 188, 190, 191, 192, 193, 194, 196, 197, 198, 201, 202, 205, 206, 207, 208, 209, 215, 216, 217, 219, 224, 225, 228, 229, 232, 233, 234, 237, 238, 239, 240, 243, 246, 252, 253, 254, 256],
      "LargestImagePixelValue": [1316, 1001, 1038, 1121, 1188, 974, 1097, 1317, 1191, 1031, 1169, 985, 1022, 1234, 1021, 963, 1028, 1131, 1126, 1085, 1192, 1281, 1117, 1044, 1049, 1154, 1085, 960, 1075, 1105, 985, 1188, 1214, 1050, 1074, 1121, 1164, 1167, 1092, 1049, 1139, 1288, 974, 952, 1118, 1059, 1036, 1140, 1151, 1085, 1019, 946, 1290, 1043, 1050, 994, 1018, 1085, 1056, 1126, 965, 1005, 931, 1084, 1136, 1002, 1133, 1059, 1242, 1306, 1332, 1114, 1042, 1290, 1042, 1006, 1049, 993, 1118, 1048, 1102, 1357, 1282, 1135, 985, 969, 1323, 968, 1178, 1379, 1213, 1010, 991, 967, 1081, 1090, 1247, 1396, 959, 1091, 1035, 1004, 942, 938, 1244, 1331, 1344, 1084, 1157, 992, 1356, 1042, 971, 1093, 1091, 1088, 1262, 945, 955, 1237, 955, 948, 938, 950, 1092, 1094, 1125, 941, 1133, 996, 930, 1034, 1053, 1386, 928, 1160, 946, 926],
      "WindowCenter": [496.0, 492.0, 493.0, 494.0, 493.0, 491.0, 498.0, 499.0, 494.0, 492.0, 496.0, 494.0, 496.0, 497.0, 496.0, 496.0, 495.0, 496.0, 497.0, 495.0, 497.0, 495.0, 493.0, 494.0, 494.0, 494.0, 495.0, 494.0, 494.0, 495.0, 493.0, 498.0, 497.0, 494.0, 495.0, 496.0, 495.0, 495.0, 493.0, 494.0, 496.0, 494.0, 493.0, 494.0, 497.0, 496.0, 494.0, 495.0, 496.0, 494.0, 494.0, 495.0, 497.0, 494.0, 493.0, 495.0, 496.0, 494.0, 496.0, 497.0, 497.0, 496.0, 495.0, 497.0, 496.0, 496.0, 497.0, 496.0, 497.0, 498.0, 496.0, 495.0, 493.0, 495.0, 494.0, 494.0, 494.0, 493.0, 495.0, 494.0, 494.0, 496.0, 490.0, 487.0, 492.0, 494.0, 496.0, 495.0, 496.0, 495.0, 493.0, 489.0, 491.0, 493.0, 494.0, 497.0, 504.0, 495.0, 488.0, 494.0, 493.0, 495.0, 497.0, 498.0, 500.0, 499.0, 495.0, 495.0, 495.0, 496.0, 495.0, 493.0, 495.0, 496.0, 495.0, 496.0, 499.0, 495.0, 494.0, 497.0, 491.0, 493.0, 494.0, 493.0, 493.0, 495.0, 495.0, 494.0, 494.0, 495.0, 497.0, 496.0, 495.0, 496.0, 492.0, 495.0, 493.0, 493.0],
      "WindowWidth": [1032.0, 1024.0, 1027.0, 1027.0, 1026.0, 1022.0, 1036.0, 1037.0, 1028.0, 1025.0, 1031.0, 1027.0, 1032.0, 1034.0, 1031.0, 1032.0, 1031.0, 1032.0, 1033.0, 1030.0, 1032.0, 1029.0, 1026.0, 1027.0, 1029.0, 1027.0, 1030.0, 1028.0, 1028.0, 1030.0, 1026.0, 1034.0, 1033.0, 1028.0, 1029.0, 1031.0, 1028.0, 1029.0, 1026.0, 1028.0, 1031.0, 1028.0, 1026.0, 1029.0, 1033.0, 1033.0, 1028.0, 1029.0, 1031.0, 1028.0, 1029.0, 1031.0, 1034.0, 1029.0, 1026.0, 1030.0, 1032.0, 1028.0, 1032.0, 1033.0, 1033.0, 1033.0, 1031.0, 1033.0, 1032.0, 1032.0, 1033.0, 1032.0, 1034.0, 1035.0, 1030.0, 1030.0, 1026.0, 1028.0, 1029.0, 1027.0, 1028.0, 1027.0, 1030.0, 1028.0, 1028.0, 1032.0, 1020.0, 1014.0, 1024.0, 1029.0, 1031.0, 1029.0, 1032.0, 1030.0, 1025.0, 1018.0, 1022.0, 1027.0, 1028.0, 1034.0, 1047.0, 1031.0, 1017.0, 1027.0, 1026.0, 1031.0, 1034.0, 1035.0, 1039.0, 1038.0, 1030.0, 1029.0, 1029.0, 1032.0, 1028.0, 1027.0, 1030.0, 1032.0, 1029.0, 1032.0, 1038.0, 1029.0, 1028.0, 1032.0, 1022.0, 1026.0, 1030.0, 1027.0, 1027.0, 1029.0, 1029.0, 1029.0, 1029.0, 1030.0, 1034.0, 1032.0, 1030.0, 1030.0, 1025.0, 1029.0, 1027.0, 1027.0]
    },
    "slices": {}
  }
}