{
  "AcquisitionMatrixPE": 64,
  "AcquisitionNumber": 1,
  "AcquisitionTime": "16:56:20.895000",
  "BandwidthPerPixelPhaseEncode": 40.064,
  "BaseResolution": 64,
  "BodyPartExamined": "BRAIN",
  "ConsistencyInfo": "N4_VD13D_LATEST_20130810",
  "ConversionSoftware": "dcm2niix",
  "ConversionSoftwareVersion": "v1.0.20191031",
  "DerivedVendorReportedEchoSpacing": 0.000780002,
  "DeviceSerialNumber": "67007",
  "DwellTime": 5.3e-06,
  "EchoTime": 0.03,
  "EchoTrainLength": 31,
  "EffectiveEchoSpacing": 0.000390001,
  "FlipAngle": 75,
  "ImageOrientationPatientDICOM": [0.999026, 0.0399292, 0.0187867, -0.040125, 0.999143, 0.0101666],
  "ImageType": [
    "ORIGINAL",
    "PRIMARY",
    "M",
    "ND",
    "NORM",
    "MOSAIC"
],
  "ImagingFrequency": 123.211,
  "InPlanePhaseEncodingDirectionDICOM": "ROW",
  "InstitutionAddress": "Perth_Drive_100_London_Ontario_CA_N6A_5K8",
  "InstitutionName": "Robarts-CFMM",
  "InstitutionalDepartmentName": "CFMM",
  "MRAcquisitionType": "2D",
  "MagneticFieldStrength": 3,
  "Manufacturer": "Siemens",
  "ManufacturersModelName": "Prisma_fit",
  "Modality": "MR",
  "ParallelReductionFactorInPlane": 2,
  "PartialFourier": 1,
  "PatientPosition": "HFS",
  "PercentPhaseFOV": 100,
  "PhaseEncodingDirection": "i",
  "PhaseEncodingSteps": 63,
  "PhaseResolution": 1,
  "PixelBandwidth": 1475,
  "ProcedureStepDescription": "Owen_Naci",
  "ProtocolName": "Resting_State_light_sed",
  "PulseSequenceDetails": "%SiemensSeq%_ep2d_bold",
  "ReceiveCoilActiveElements": "HEA;HEP",
  "ReceiveCoilName": "Head_32",
  "ReconMatrixPE": 64,
  "RefLinesPE": 24,
  "RepetitionTime": 2,
  "SAR": 0.090657,
  "ScanOptions": "FS",
  "ScanningSequence": "EP",
  "SequenceName": "_epfid2d1_64",
  "SequenceVariant": "SK",
  "SeriesDescription": "Resting_State_light_sed",
  "SeriesNumber": 9,
  "ShimSetting": [5236, -6206, -4093, 291, 48, -67, 40, 78],
  "SliceThickness": 3,
  "SliceTiming": [1.92, 1.86, 1.8, 1.74, 1.68, 1.62, 1.56, 1.5, 1.44, 1.38, 1.32, 1.26, 1.2, 1.14, 1.08, 1.02, 0.96, 0.9, 0.84, 0.78, 0.72, 0.66, 0.6, 0.54, 0.48, 0.42, 0.36, 0.3, 0.24, 0.18, 0.12, 0.06, 0],
  "SoftwareVersions": "syngo_MR_D13D",
  "SpacingBetweenSlices": 3.75,
  "StationName": "AWP67007",
  "TaskName": "rest",
  "TotalReadoutTime": 0.0245701,
  "TxRefAmp": 260.962,
  "dcmmeta_affine": [
    [-2.997077703475952, -0.12037507444620132, 0.06886753439903259, 93.86138153076172],
    [-0.11978748440742493, 2.9974288940429688, 0.04091459512710571, -69.20264434814453],
    [0.056360166519880295, -0.030499931424856186, 3.7491443157196045, -51.327613830566406],
    [0.0, 0.0, 0.0, 1.0]
],
  "dcmmeta_reorient_transform": [
    [0.0, -1.0, 0.0, 63.0],
    [1.0, 0.0, 0.0, 0.0],
    [0.0, 0.0, 1.0, 0.0],
    [0.0, 0.0, 0.0, 1.0]
],
  "dcmmeta_shape": [64, 64, 33, 139],
  "dcmmeta_slice_dim": 2,
  "dcmmeta_version": 0.6,
  "global": {
    "const": {
      "AcquisitionMatrix": [0, 64, 64, 0],
      "AngioFlag": "N",
      "BitsAllocated": 16,
      "BitsStored": 12,
      "BodyPartExamined": "BRAIN",
      "Columns": 384,
      "EchoNumbers": 1,
      "EchoTime": 30.0,
      "EchoTrainLength": 31,
      "FlipAngle": 75.0,
      "HighBit": 11,
      "ImageOrientationPatient": [0.99902588611759, 0.03992916120563, 0.01878672276838, -0.0401250239287, 0.99914294362948, 0.01016664399605],
      "ImagePositionPatient": [-546.55016322235, -618.38998520485, -67.146724675007],
      "ImageType": [
        "ORIGINAL",
        "PRIMARY",
        "M",
        "ND",
        "NORM",
        "MOSAIC"
],
      "ImagedNucleus": "1H",
      "ImagingFrequency": 123.21144,
      "InPlanePhaseEncodingDirection": "ROW",
      "MRAcquisitionType": "2D",
      "MagneticFieldStrength": 3.0,
      "Manufacturer": "SIEMENS",
      "ManufacturerModelName": "Prisma_fit",
      "Modality": "MR",
      "NumberOfAverages": 1.0,
      "NumberOfPhaseEncodingSteps": 63,
      "PercentPhaseFieldOfView": 100.0,
      "PercentSampling": 100.0,
      "PerformedProcedureStepStartTime": "160600.811000",
      "PhotometricInterpretation": "MONOCHROME2",
      "PixelBandwidth": 1475.0,
      "PixelRepresentation": 0,
      "PixelSpacing": [3.0, 3.0],
      "ProtocolName": "Resting State_light sed",
      "RepetitionTime": 2000.0,
      "Rows": 384,
      "SAR": 0.09065696390802,
      "SamplesPerPixel": 1,
      "ScanOptions": "FS",
      "ScanningSequence": "EP",
      "SequenceName": "*epfid2d1_64",
      "SequenceVariant": "SK",
      "SeriesDescription": "Resting State_light sed",
      "SeriesNumber": 9,
      "SeriesTime": "165706.011000",
      "SliceLocation": -50.347206784936,
      "SliceThickness": 3.0,
      "SmallestImagePixelValue": 0,
      "SoftwareVersions": "syngo MR D13D",
      "SpacingBetweenSlices": 3.7500000980463,
      "SpecificCharacterSet": "ISO_IR 100",
      "StudyID": "1",
      "StudyTime": "160600.752000",
      "TimeOfLastCalibration": ["123723.000000", "123723.000000"],
      "TransmitCoilName": "Body",
      "VariableFlipAngleFlag": "N",
      "WindowCenterWidthExplanation": "Algo1",
      "dBdt": 0.0},
    "slices": {}
  },
  "time": {
    "samples": {
      "AcquisitionNumber": [1, 2, 4, 6, 8, 9, 11, 12, 14, 20, 21, 26, 28, 29, 31, 32, 34, 36, 38, 42, 43, 44, 45, 46, 48, 49, 50, 52, 53, 54, 57, 58, 59, 61, 62, 63, 66, 68, 69, 70, 71, 72, 73, 75, 76, 78, 79, 81, 87, 88, 91, 95, 96, 100, 102, 103, 106, 107, 109, 110, 111, 112, 117, 118, 120, 125, 126, 128, 129, 130, 133, 135, 136, 137, 140, 141, 143, 144, 147, 153, 155, 156, 158, 159, 161, 162, 165, 166, 167, 168, 170, 172, 173, 174, 175, 176, 177, 180, 181, 184, 185, 186, 189, 193, 195, 196, 198, 199, 200, 201, 204, 206, 207, 209, 211, 212, 217, 218, 219, 220, 221, 224, 225, 228, 230, 233, 234, 235, 236, 240, 243, 244, 247, 250, 251, 252, 254, 255, 256],
      "AcquisitionTime": ["165620.895000", "165622.895000", "165626.895000", "165630.895000", "165634.895000", "165636.895000", "165640.895000", "165642.895000", "165646.895000", "165658.895000", "165700.895000", "165710.895000", "165714.895000", "165716.895000", "165720.895000", "165722.895000", "165726.895000", "165730.895000", "165734.895000", "165742.895000", "165744.895000", "165746.895000", "165748.895000", "165750.895000", "165754.895000", "165756.895000", "165758.895000", "165802.895000", "165804.895000", "165806.895000", "165812.895000", "165814.895000", "165816.895000", "165820.895000", "165822.895000", "165824.895000", "165830.895000", "165834.895000", "165836.895000", "165838.895000", "165840.895000", "165842.895000", "165844.895000", "165848.895000", "165850.895000", "165854.895000", "165856.895000", "165900.897500", "165912.897500", "165914.897500", "165920.897500", "165928.897500", "165930.897500", "165938.897500", "165942.897500", "165944.897500", "165950.897500", "165952.897500", "165956.897500", "165958.897500", "170000.897500", "170002.897500", "170012.897500", "170014.897500", "170018.897500", "170028.897500", "170030.897500", "170034.897500", "170036.897500", "170038.897500", "170044.897500", "170048.897500", "170050.897500", "170052.897500", "170058.897500", "170100.897500", "170104.897500", "170106.897500", "170112.897500", "170124.897500", "170128.897500", "170130.897500", "170134.897500", "170136.897500", "170140.897500", "170142.897500", "170148.897500", "170150.897500", "170152.897500", "170154.897500", "170158.897500", "170202.897500", "170204.897500", "170206.897500", "170208.897500", "170210.897500", "170212.897500", "170218.897500", "170220.897500", "170226.897500", "170228.897500", "170230.897500", "170236.897500", "170244.897500", "170248.897500", "170250.897500", "170254.897500", "170256.897500", "170258.897500", "170300.897500", "170306.897500", "170310.897500", "170312.897500", "170316.897500", "170320.897500", "170322.897500", "170332.897500", "170334.897500", "170336.897500", "170338.897500", "170340.897500", "170346.897500", "170348.897500", "170354.897500", "170358.897500", "170404.897500", "170406.897500", "170408.897500", "170410.897500", "170418.897500", "170424.897500", "170426.897500", "170432.897500", "170438.897500", "170440.897500", "170442.897500", "170446.897500", "170448.897500", "170450.897500"],
      "ContentTime": ["165706.015000", "165706.026000", "165706.032000", "165706.038000", "165706.043000", "165706.046000", "165706.051000", "165706.054000", "165706.060000", "165706.082000", "165706.085000", "165746.014000", "165746.019000", "165746.022000", "165746.027000", "165746.030000", "165746.035000", "165746.040000", "165746.046000", "165746.058000", "165746.061000", "165826.008000", "165826.011000", "165826.014000", "165826.019000", "165826.022000", "165826.025000", "165826.031000", "165826.034000", "165826.037000", "165826.046000", "165826.048000", "165826.051000", "165826.056000", "165826.059000", "165826.062000", "165906.015000", "165906.021000", "165906.024000", "165906.026000", "165906.029000", "165906.032000", "165906.035000", "165906.041000", "165906.044000", "165906.050000", "165906.053000", "165906.059000", "165926.018000", "165926.021000", "165926.030000", "170006.011000", "170006.014000", "170006.025000", "170006.030000", "170006.033000", "170006.041000", "170006.045000", "170006.050000", "170006.053000", "170006.056000", "170006.058000", "170046.018000", "170046.021000", "170046.027000", "170046.041000", "170046.044000", "170046.050000", "170046.053000", "170046.055000", "170046.063000", "170126.012000", "170126.015000", "170126.018000", "170126.027000", "170126.030000", "170126.035000", "170126.038000", "170126.055000", "170126.072000", "170206.015000", "170206.018000", "170206.023000", "170206.026000", "170206.032000", "170206.035000", "170206.043000", "170206.046000", "170206.049000", "170206.052000", "170206.058000", "170206.063000", "170206.066000", "170246.008000", "170246.011000", "170246.014000", "170246.017000", "170246.025000", "170246.028000", "170246.036000", "170246.039000", "170246.042000", "170246.051000", "170246.062000", "170326.012000", "170326.015000", "170326.021000", "170326.024000", "170326.026000", "170326.029000", "170326.038000", "170326.044000", "170326.046000", "170326.052000", "170326.058000", "170326.060000", "170406.018000", "170406.021000", "170406.024000", "170406.027000", "170406.030000", "170406.038000", "170406.042000", "170406.051000", "170406.057000", "170406.065000", "170446.008000", "170446.011000", "170446.014000", "170446.025000", "170446.033000", "170446.035000", "170446.044000", "170446.052000", "170446.055000", "170446.057000", "170451.445000", "170451.449000", "170451.451000"],
      "InstanceCreationTime": ["165706.015000", "165706.026000", "165706.032000", "165706.038000", "165706.043000", "165706.046000", "165706.051000", "165706.054000", "165706.060000", "165706.082000", "165706.085000", "165746.014000", "165746.019000", "165746.022000", "165746.027000", "165746.030000", "165746.035000", "165746.040000", "165746.046000", "165746.058000", "165746.061000", "165826.008000", "165826.011000", "165826.014000", "165826.019000", "165826.022000", "165826.025000", "165826.031000", "165826.034000", "165826.037000", "165826.046000", "165826.048000", "165826.051000", "165826.056000", "165826.059000", "165826.062000", "165906.015000", "165906.021000", "165906.024000", "165906.026000", "165906.029000", "165906.032000", "165906.035000", "165906.041000", "165906.044000", "165906.050000", "165906.053000", "165906.059000", "165926.018000", "165926.021000", "165926.030000", "170006.011000", "170006.014000", "170006.025000", "170006.030000", "170006.033000", "170006.041000", "170006.045000", "170006.050000", "170006.053000", "170006.056000", "170006.058000", "170046.018000", "170046.021000", "170046.027000", "170046.041000", "170046.044000", "170046.050000", "170046.053000", "170046.055000", "170046.063000", "170126.012000", "170126.015000", "170126.018000", "170126.027000", "170126.030000", "170126.035000", "170126.038000", "170126.055000", "170126.072000", "170206.015000", "170206.018000", "170206.023000", "170206.026000", "170206.032000", "170206.035000", "170206.043000", "170206.046000", "170206.049000", "170206.052000", "170206.058000", "170206.063000", "170206.066000", "170246.008000", "170246.011000", "170246.014000", "170246.017000", "170246.025000", "170246.028000", "170246.036000", "170246.039000", "170246.042000", "170246.051000", "170246.062000", "170326.012000", "170326.015000", "170326.021000", "170326.024000", "170326.026000", "170326.029000", "170326.038000", "170326.044000", "170326.046000", "170326.052000", "170326.058000", "170326.060000", "170406.018000", "170406.021000", "170406.024000", "170406.027000", "170406.030000", "170406.038000", "170406.042000", "170406.051000", "170406.057000", "170406.065000", "170446.008000", "170446.011000", "170446.014000", "170446.025000", "170446.033000", "170446.035000", "170446.044000", "170446.052000", "170446.055000", "170446.057000", "170451.445000", "170451.449000", "170451.451000"],
      "InstanceNumber": [1, 2, 4, 6, 8, 9, 11, 12, 14, 20, 21, 26, 28, 29, 31, 32, 34, 36, 38, 42, 43, 44, 45, 46, 48, 49, 50, 52, 53, 54, 57, 58, 59, 61, 62, 63, 66, 68, 69, 70, 71, 72, 73, 75, 76, 78, 79, 81, 87, 88, 91, 95, 96, 100, 102, 103, 106, 107, 109, 110, 111, 112, 117, 118, 120, 125, 126, 128, 129, 130, 133, 135, 136, 137, 140, 141, 143, 144, 147, 153, 155, 156, 158, 159, 161, 162, 165, 166, 167, 168, 170, 172, 173, 174, 175, 176, 177, 180, 181, 184, 185, 186, 189, 193, 195, 196, 198, 199, 200, 201, 204, 206, 207, 209, 211, 212, 217, 218, 219, 220, 221, 224, 225, 228, 230, 233, 234, 235, 236, 240, 243, 244, 247, 250, 251, 252, 254, 255, 256],
      "LargestImagePixelValue": [1084, 1059, 1172, 1180, 1048, 991, 984, 1050, 1112, 1114, 1060, 1171, 1117, 1091, 1095, 1019, 1118, 1189, 1133, 1128, 1101, 1174, 1129, 1152, 1182, 1134, 1187, 1244, 1216, 1192, 1040, 1206, 1022, 1080, 1104, 1055, 1242, 1171, 1158, 1040, 1084, 1235, 1240, 1128, 1207, 1066, 1016, 1171, 1169, 1339, 1243, 1091, 1022, 1289, 1027, 1072, 1094, 1067, 1151, 1037, 1020, 1233, 962, 1115, 1075, 1111, 1124, 1108, 1110, 937, 1021, 1087, 1087, 1073, 1151, 1032, 971, 1095, 1062, 1140, 1204, 1092, 1129, 1206, 1199, 1105, 1144, 1135, 1094, 1202, 1134, 1128, 1203, 1060, 1082, 1137, 1090, 1083, 1223, 1382, 1287, 982, 1124, 1084, 1124, 993, 1037, 1115, 1136, 1040, 1192, 1178, 1152, 1094, 1179, 1131, 1187, 1188, 1123, 1140, 1010, 1194, 1060, 1017, 1181, 1044, 1136, 1032, 1090, 1124, 1161, 1120, 1222, 1209, 1092, 1393, 1313, 1004, 1067],
      "WindowCenter": [498.0, 497.0, 497.0, 498.0, 498.0, 499.0, 501.0, 501.0, 501.0, 504.0, 503.0, 504.0, 503.0, 503.0, 505.0, 504.0, 506.0, 506.0, 507.0, 508.0, 508.0, 508.0, 508.0, 508.0, 509.0, 508.0, 508.0, 510.0, 508.0, 508.0, 500.0, 501.0, 499.0, 500.0, 502.0, 502.0, 506.0, 503.0, 503.0, 502.0, 504.0, 504.0, 503.0, 502.0, 503.0, 501.0, 502.0, 506.0, 502.0, 505.0, 498.0, 494.0, 494.0, 503.0, 500.0, 500.0, 498.0, 497.0, 496.0, 495.0, 495.0, 497.0, 495.0, 497.0, 498.0, 503.0, 500.0, 492.0, 495.0, 499.0, 495.0, 496.0, 495.0, 496.0, 501.0, 500.0, 500.0, 502.0, 503.0, 506.0, 506.0, 506.0, 506.0, 506.0, 505.0, 504.0, 504.0, 503.0, 504.0, 505.0, 504.0, 505.0, 505.0, 503.0, 504.0, 505.0, 505.0, 505.0, 506.0, 501.0, 500.0, 498.0, 498.0, 493.0, 496.0, 496.0, 497.0, 500.0, 503.0, 501.0, 501.0, 499.0, 498.0, 498.0, 499.0, 498.0, 497.0, 497.0, 498.0, 498.0, 502.0, 498.0, 497.0, 496.0, 499.0, 499.0, 501.0, 501.0, 501.0, 503.0, 505.0, 505.0, 504.0, 504.0, 503.0, 504.0, 498.0, 495.0, 495.0],
      "WindowWidth": [1036.0, 1034.0, 1035.0, 1036.0, 1037.0, 1039.0, 1043.0, 1043.0, 1042.0, 1048.0, 1047.0, 1047.0, 1046.0, 1046.0, 1049.0, 1049.0, 1051.0, 1052.0, 1053.0, 1055.0, 1055.0, 1056.0, 1055.0, 1056.0, 1057.0, 1055.0, 1055.0, 1058.0, 1056.0, 1055.0, 1041.0, 1042.0, 1039.0, 1041.0, 1044.0, 1044.0, 1052.0, 1046.0, 1046.0, 1044.0, 1047.0, 1048.0, 1046.0, 1044.0, 1045.0, 1042.0, 1043.0, 1052.0, 1046.0, 1050.0, 1037.0, 1029.0, 1029.0, 1047.0, 1039.0, 1040.0, 1036.0, 1034.0, 1031.0, 1031.0, 1031.0, 1033.0, 1032.0, 1035.0, 1036.0, 1046.0, 1040.0, 1024.0, 1032.0, 1039.0, 1031.0, 1032.0, 1030.0, 1033.0, 1041.0, 1041.0, 1041.0, 1044.0, 1046.0, 1052.0, 1052.0, 1052.0, 1052.0, 1052.0, 1050.0, 1047.0, 1047.0, 1046.0, 1047.0, 1049.0, 1047.0, 1050.0, 1049.0, 1046.0, 1048.0, 1049.0, 1050.0, 1049.0, 1051.0, 1041.0, 1040.0, 1037.0, 1035.0, 1027.0, 1033.0, 1034.0, 1035.0, 1039.0, 1045.0, 1042.0, 1042.0, 1038.0, 1036.0, 1035.0, 1038.0, 1036.0, 1035.0, 1034.0, 1035.0, 1035.0, 1046.0, 1036.0, 1035.0, 1033.0, 1038.0, 1038.0, 1042.0, 1042.0, 1042.0, 1046.0, 1050.0, 1049.0, 1048.0, 1048.0, 1047.0, 1047.0, 1037.0, 1031.0, 1031.0]
    },
    "slices": {}
  }
}