{
  "AcquisitionMatrixPE": 64,
  "AcquisitionNumber": 1,
  "AcquisitionTime": "17:49:37.107500",
  "BandwidthPerPixelPhaseEncode": 40.064,
  "BaseResolution": 64,
  "BodyPartExamined": "BRAIN",
  "ConsistencyInfo": "N4_VD13D_LATEST_20130810",
  "ConversionSoftware": "dcm2niix",
  "ConversionSoftwareVersion": "v1.0.20191031",
  "DerivedVendorReportedEchoSpacing": 0.000780002,
  "DeviceSerialNumber": "67007",
  "DwellTime": 5.3e-06,
  "EchoTime": 0.03,
  "EchoTrainLength": 31,
  "EffectiveEchoSpacing": 0.000390001,
  "FlipAngle": 75,
  "ImageOrientationPatientDICOM": [0.999026, 0.0399292, 0.0187867, -0.040125, 0.999143, 0.0101666],
  "ImageType": [
    "ORIGINAL",
    "PRIMARY",
    "M",
    "ND",
    "NORM",
    "MOSAIC"
],
  "ImagingFrequency": 123.211,
  "InPlanePhaseEncodingDirectionDICOM": "ROW",
  "InstitutionAddress": "Perth_Drive_100_London_Ontario_CA_N6A_5K8",
  "InstitutionName": "Robarts-CFMM",
  "InstitutionalDepartmentName": "CFMM",
  "MRAcquisitionType": "2D",
  "MagneticFieldStrength": 3,
  "Manufacturer": "Siemens",
  "ManufacturersModelName": "Prisma_fit",
  "Modality": "MR",
  "ParallelReductionFactorInPlane": 2,
  "PartialFourier": 1,
  "PatientPosition": "HFS",
  "PercentPhaseFOV": 100,
  "PhaseEncodingDirection": "i",
  "PhaseEncodingSteps": 63,
  "PhaseResolution": 1,
  "PixelBandwidth": 1475,
  "ProcedureStepDescription": "Owen_Naci",
  "ProtocolName": "taken_recovery",
  "PulseSequenceDetails": "%SiemensSeq%_ep2d_bold",
  "ReceiveCoilActiveElements": "HEA;HEP",
  "ReceiveCoilName": "Head_32",
  "ReconMatrixPE": 64,
  "RefLinesPE": 24,
  "RepetitionTime": 2,
  "SAR": 0.0904888,
  "ScanOptions": "FS",
  "ScanningSequence": "EP",
  "SequenceName": "_epfid2d1_64",
  "SequenceVariant": "SK",
  "SeriesDescription": "taken_recovery",
  "SeriesNumber": 20,
  "ShimSetting": [5236, -6206, -4093, 291, 48, -67, 40, 78],
  "SliceThickness": 3,
  "SliceTiming": [1.92, 1.86, 1.8, 1.74, 1.68, 1.62, 1.56, 1.5, 1.44, 1.38, 1.32, 1.26, 1.2, 1.14, 1.08, 1.02, 0.96, 0.9, 0.84, 0.78, 0.72, 0.66, 0.6, 0.54, 0.48, 0.42, 0.36, 0.3, 0.24, 0.18, 0.12, 0.06, 0],
  "SoftwareVersions": "syngo_MR_D13D",
  "SpacingBetweenSlices": 3.75,
  "StationName": "AWP67007",
  "TaskName": "audiorecovery",
  "TotalReadoutTime": 0.0245701,
  "TxRefAmp": 260.962,
  "dcmmeta_affine": [
    [-2.997077703475952, -0.12037507444620132, 0.06886753439903259, 93.86138153076172],
    [-0.11978748440742493, 2.9974288940429688, 0.04091459512710571, -69.20264434814453],
    [0.056360166519880295, -0.030499931424856186, 3.7491443157196045, -51.327613830566406],
    [0.0, 0.0, 0.0, 1.0]
],
  "dcmmeta_reorient_transform": [
    [0.0, -1.0, 0.0, 63.0],
    [1.0, 0.0, 0.0, 0.0],
    [0.0, 0.0, 1.0, 0.0],
    [0.0, 0.0, 0.0, 1.0]
],
  "dcmmeta_shape": [64, 64, 33, 155],
  "dcmmeta_slice_dim": 2,
  "dcmmeta_version": 0.6,
  "global": {
    "const": {
      "AcquisitionMatrix": [0, 64, 64, 0],
      "AngioFlag": "N",
      "BitsAllocated": 16,
      "BitsStored": 12,
      "BodyPartExamined": "BRAIN",
      "Columns": 384,
      "EchoNumbers": 1,
      "EchoTime": 30.0,
      "EchoTrainLength": 31,
      "FlipAngle": 75.0,
      "HighBit": 11,
      "ImageOrientationPatient": [0.99902588611759, 0.03992916120563, 0.01878672276838, -0.0401250239287, 0.99914294362948, 0.01016664399605],
      "ImagePositionPatient": [-546.55016322235, -618.38998520485, -67.146724675007],
      "ImageType": [
        "ORIGINAL",
        "PRIMARY",
        "M",
        "ND",
        "NORM",
        "MOSAIC"
],
      "ImagedNucleus": "1H",
      "ImagingFrequency": 123.211461,
      "InPlanePhaseEncodingDirection": "ROW",
      "MRAcquisitionType": "2D",
      "MagneticFieldStrength": 3.0,
      "Manufacturer": "SIEMENS",
      "ManufacturerModelName": "Prisma_fit",
      "Modality": "MR",
      "NumberOfAverages": 1.0,
      "NumberOfPhaseEncodingSteps": 63,
      "PercentPhaseFieldOfView": 100.0,
      "PercentSampling": 100.0,
      "PerformedProcedureStepStartTime": "160600.811000",
      "PhotometricInterpretation": "MONOCHROME2",
      "PixelBandwidth": 1475.0,
      "PixelRepresentation": 0,
      "PixelSpacing": [3.0, 3.0],
      "ProtocolName": "taken_recovery",
      "RepetitionTime": 2000.0,
      "Rows": 384,
      "SAR": 0.090488829481,
      "SamplesPerPixel": 1,
      "ScanOptions": "FS",
      "ScanningSequence": "EP",
      "SequenceName": "*epfid2d1_64",
      "SequenceVariant": "SK",
      "SeriesDescription": "taken_recovery",
      "SeriesNumber": 20,
      "SeriesTime": "174948.004000",
      "SliceLocation": -50.347206784936,
      "SliceThickness": 3.0,
      "SmallestImagePixelValue": 0,
      "SoftwareVersions": "syngo MR D13D",
      "SpacingBetweenSlices": 3.7500000980463,
      "SpecificCharacterSet": "ISO_IR 100",
      "StudyID": "1",
      "StudyTime": "160600.752000",
      "TimeOfLastCalibration": ["123723.000000", "123723.000000"],
      "TransmitCoilName": "Body",
      "VariableFlipAngleFlag": "N",
      "WindowCenterWidthExplanation": "Algo1",
      "dBdt": 0.0},
    "slices": {}
  },
  "time": {
    "samples": {
      "AcquisitionNumber": [1, 2, 3, 4, 5, 6, 7, 8, 9, 10, 11, 12, 13, 14, 15, 16, 17, 18, 19, 20, 21, 22, 23, 24, 25, 26, 27, 28, 29, 30, 31, 32, 33, 34, 35, 36, 37, 38, 39, 40, 41, 42, 43, 44, 45, 46, 47, 48, 49, 50, 51, 52, 53, 54, 55, 56, 57, 58, 59, 60, 61, 62, 63, 64, 65, 66, 67, 68, 69, 70, 71, 72, 73, 74, 75, 76, 77, 78, 79, 80, 81, 82, 83, 84, 85, 86, 87, 88, 89, 90, 91, 92, 93, 94, 95, 96, 97, 98, 99, 100, 101, 102, 103, 104, 105, 106, 107, 108, 109, 110, 111, 112, 113, 114, 115, 116, 117, 118, 119, 120, 121, 122, 123, 124, 125, 126, 127, 128, 129, 130, 131, 132, 133, 134, 135, 136, 137, 138, 139, 140, 141, 142, 143, 144, 145, 146, 147, 148, 149, 150, 151, 152, 153, 154, 155],
      "AcquisitionTime": ["174937.107500", "174939.107500", "174941.107500", "174943.107500", "174945.107500", "174947.107500", "174949.107500", "174951.107500", "174953.107500", "174955.107500", "174957.107500", "174959.107500", "175001.107500", "175003.107500", "175005.107500", "175007.107500", "175009.107500", "175011.107500", "175013.107500", "175015.107500", "175017.107500", "175019.107500", "175021.107500", "175023.107500", "175025.107500", "175027.107500", "175029.107500", "175031.107500", "175033.107500", "175035.107500", "175037.107500", "175039.107500", "175041.107500", "175043.107500", "175045.107500", "175047.107500", "175049.107500", "175051.107500", "175053.107500", "175055.107500", "175057.107500", "175059.107500", "175101.107500", "175103.107500", "175105.107500", "175107.107500", "175109.107500", "175111.107500", "175113.107500", "175115.107500", "175117.107500", "175119.107500", "175121.107500", "175123.107500", "175125.107500", "175127.107500", "175129.107500", "175131.107500", "175133.107500", "175135.107500", "175137.107500", "175139.107500", "175141.107500", "175143.107500", "175145.107500", "175147.107500", "175149.107500", "175151.107500", "175153.107500", "175155.107500", "175157.107500", "175159.107500", "175201.107500", "175203.107500", "175205.107500", "175207.107500", "175209.107500", "175211.107500", "175213.107500", "175215.107500", "175217.107500", "175219.107500", "175221.107500", "175223.107500", "175225.107500", "175227.107500", "175229.107500", "175231.107500", "175233.107500", "175235.107500", "175237.107500", "175239.107500", "175241.107500", "175243.107500", "175245.107500", "175247.107500", "175249.107500", "175251.107500", "175253.107500", "175255.107500", "175257.107500", "175259.107500", "175301.110000", "175303.110000", "175305.110000", "175307.110000", "175309.110000", "175311.110000", "175313.110000", "175315.110000", "175317.110000", "175319.110000", "175321.110000", "175323.110000", "175325.110000", "175327.110000", "175329.110000", "175331.110000", "175333.110000", "175335.110000", "175337.110000", "175339.110000", "175341.110000", "175343.110000", "175345.110000", "175347.110000", "175349.110000", "175351.110000", "175353.110000", "175355.110000", "175357.110000", "175359.110000", "175401.110000", "175403.110000", "175405.110000", "175407.110000", "175409.110000", "175411.110000", "175413.110000", "175415.110000", "175417.110000", "175419.110000", "175421.110000", "175423.110000", "175425.110000", "175427.110000", "175429.110000", "175431.110000", "175433.110000", "175435.110000", "175437.110000", "175439.110000", "175441.110000", "175443.110000", "175445.110000"],
      "ContentTime": ["174948.008000", "174948.012000", "174948.015000", "174948.018000", "174948.020000", "174948.023000", "175028.001000", "175028.004000", "175028.007000", "175028.010000", "175028.013000", "175028.019000", "175028.022000", "175028.025000", "175028.028000", "175028.030000", "175028.033000", "175028.036000", "175028.039000", "175028.042000", "175028.044000", "175028.047000", "175028.050000", "175028.053000", "175028.056000", "175028.059000", "175108.000000", "175108.003000", "175108.006000", "175108.009000", "175108.012000", "175108.015000", "175108.018000", "175108.021000", "175108.024000", "175108.026000", "175108.029000", "175108.032000", "175108.035000", "175108.038000", "175108.041000", "175108.044000", "175108.047000", "175108.050000", "175108.052000", "175108.055000", "175148.003000", "175148.006000", "175148.009000", "175148.011000", "175148.014000", "175148.017000", "175148.019000", "175148.022000", "175148.025000", "175148.028000", "175148.031000", "175148.033000", "175148.036000", "175148.039000", "175148.041000", "175148.044000", "175148.047000", "175148.049000", "175148.052000", "175148.055000", "175228.002000", "175228.005000", "175228.008000", "175228.011000", "175228.013000", "175228.016000", "175228.019000", "175228.022000", "175228.025000", "175228.028000", "175228.036000", "175228.039000", "175228.042000", "175228.045000", "175228.048000", "175228.051000", "175228.054000", "175228.056000", "175228.059000", "175228.062000", "175308.001000", "175308.005000", "175308.007000", "175308.010000", "175308.013000", "175308.016000", "175308.018000", "175308.021000", "175308.024000", "175308.027000", "175308.029000", "175308.032000", "175308.035000", "175308.038000", "175308.040000", "175308.043000", "175308.046000", "175308.048000", "175308.051000", "175308.054000", "175348.002000", "175348.005000", "175348.008000", "175348.011000", "175348.013000", "175348.016000", "175348.019000", "175348.022000", "175348.025000", "175348.028000", "175348.030000", "175348.033000", "175348.036000", "175348.039000", "175348.042000", "175348.045000", "175348.047000", "175348.050000", "175348.053000", "175348.055000", "175428.002000", "175428.005000", "175428.008000", "175428.011000", "175428.013000", "175428.016000", "175428.019000", "175428.022000", "175428.025000", "175428.027000", "175428.030000", "175428.033000", "175428.036000", "175428.039000", "175428.041000", "175428.044000", "175428.047000", "175428.050000", "175428.052000", "175428.055000", "175445.848000", "175445.851000", "175445.855000", "175445.858000", "175445.861000", "175445.864000", "175445.867000", "175445.869000", "175445.873000"],
      "InstanceCreationTime": ["174948.008000", "174948.012000", "174948.015000", "174948.018000", "174948.020000", "174948.023000", "175028.001000", "175028.004000", "175028.007000", "175028.010000", "175028.013000", "175028.019000", "175028.022000", "175028.025000", "175028.028000", "175028.030000", "175028.033000", "175028.036000", "175028.039000", "175028.042000", "175028.044000", "175028.047000", "175028.050000", "175028.053000", "175028.056000", "175028.059000", "175108.000000", "175108.003000", "175108.006000", "175108.009000", "175108.012000", "175108.015000", "175108.018000", "175108.021000", "175108.024000", "175108.026000", "175108.029000", "175108.032000", "175108.035000", "175108.038000", "175108.041000", "175108.044000", "175108.047000", "175108.050000", "175108.052000", "175108.055000", "175148.003000", "175148.006000", "175148.009000", "175148.011000", "175148.014000", "175148.017000", "175148.019000", "175148.022000", "175148.025000", "175148.028000", "175148.031000", "175148.033000", "175148.036000", "175148.039000", "175148.041000", "175148.044000", "175148.047000", "175148.049000", "175148.052000", "175148.055000", "175228.002000", "175228.005000", "175228.008000", "175228.011000", "175228.013000", "175228.016000", "175228.019000", "175228.022000", "175228.025000", "175228.028000", "175228.036000", "175228.039000", "175228.042000", "175228.045000", "175228.048000", "175228.051000", "175228.054000", "175228.056000", "175228.059000", "175228.062000", "175308.001000", "175308.005000", "175308.007000", "175308.010000", "175308.013000", "175308.016000", "175308.018000", "175308.021000", "175308.024000", "175308.027000", "175308.029000", "175308.032000", "175308.035000", "175308.038000", "175308.040000", "175308.043000", "175308.046000", "175308.048000", "175308.051000", "175308.054000", "175348.002000", "175348.005000", "175348.008000", "175348.011000", "175348.013000", "175348.016000", "175348.019000", "175348.022000", "175348.025000", "175348.028000", "175348.030000", "175348.033000", "175348.036000", "175348.039000", "175348.042000", "175348.045000", "175348.047000", "175348.050000", "175348.053000", "175348.055000", "175428.002000", "175428.005000", "175428.008000", "175428.011000", "175428.013000", "175428.016000", "175428.019000", "175428.022000", "175428.025000", "175428.027000", "175428.030000", "175428.033000", "175428.036000", "175428.039000", "175428.041000", "175428.044000", "175428.047000", "175428.050000", "175428.052000", "175428.055000", "175445.848000", "175445.851000", "175445.855000", "175445.858000", "175445.861000", "175445.864000", "175445.867000", "175445.869000", "175445.873000"],
      "InstanceNumber": [1, 2, 3, 4, 5, 6, 7, 8, 9, 10, 11, 12, 13, 14, 15, 16, 17, 18, 19, 20, 21, 22, 23, 24, 25, 26, 27, 28, 29, 30, 31, 32, 33, 34, 35, 36, 37, 38, 39, 40, 41, 42, 43, 44, 45, 46, 47, 48, 49, 50, 51, 52, 53, 54, 55, 56, 57, 58, 59, 60, 61, 62, 63, 64, 65, 66, 67, 68, 69, 70, 71, 72, 73, 74, 75, 76, 77, 78, 79, 80, 81, 82, 83, 84, 85, 86, 87, 88, 89, 90, 91, 92, 93, 94, 95, 96, 97, 98, 99, 100, 101, 102, 103, 104, 105, 106, 107, 108, 109, 110, 111, 112, 113, 114, 115, 116, 117, 118, 119, 120, 121, 122, 123, 124, 125, 126, 127, 128, 129, 130, 131, 132, 133, 134, 135, 136, 137, 138, 139, 140, 141, 142, 143, 144, 145, 146, 147, 148, 149, 150, 151, 152, 153, 154, 155],
      "LargestImagePixelValue": [1233, 1358, 1172, 1135, 1132, 896, 1137, 1116, 1233, 1163, 1209, 1265, 1134, 1070, 864, 1130, 1144, 1205, 1300, 1174, 1263, 1237, 1005, 1017, 1124, 985, 1135, 1053, 1245, 1235, 1340, 1186, 1257, 1235, 1227, 1312, 1109, 1041, 919, 1138, 964, 1067, 1206, 1078, 964, 1021, 1114, 1245, 1192, 1341, 1162, 991, 1163, 868, 1046, 1194, 1073, 1039, 1217, 1101, 985, 1247, 1108, 1072, 1199, 1187, 1265, 1173, 1155, 947, 1123, 1232, 1166, 1292, 1079, 1057, 963, 1157, 1217, 1221, 1271, 1030, 1248, 1307, 1044, 879, 993, 1166, 1179, 1308, 1199, 1256, 1067, 1042, 1130, 1081, 1280, 1133, 1176, 1249, 1206, 1236, 1076, 1044, 881, 1066, 1182, 1150, 1067, 1308, 1020, 1046, 1063, 1165, 1214, 1290, 1121, 1185, 964, 1104, 892, 1033, 1296, 1127, 1334, 1180, 1190, 966, 1089, 963, 957, 1305, 1070, 1024, 1083, 1235, 1171, 1253, 1236, 1063, 887, 1083, 1241, 1168, 1086, 1262, 1219, 1032, 968, 1234, 1280, 1048, 1060, 985, 1108],
      "WindowCenter": [498.0, 497.0, 495.0, 494.0, 494.0, 492.0, 495.0, 495.0, 496.0, 495.0, 495.0, 495.0, 495.0, 494.0, 492.0, 494.0, 494.0, 495.0, 495.0, 494.0, 495.0, 495.0, 494.0, 495.0, 497.0, 496.0, 500.0, 498.0, 499.0, 497.0, 495.0, 494.0, 495.0, 496.0, 496.0, 496.0, 495.0, 494.0, 495.0, 497.0, 495.0, 498.0, 498.0, 499.0, 497.0, 498.0, 500.0, 498.0, 497.0, 497.0, 495.0, 493.0, 496.0, 492.0, 496.0, 496.0, 495.0, 494.0, 495.0, 496.0, 494.0, 497.0, 495.0, 495.0, 495.0, 496.0, 496.0, 494.0, 495.0, 495.0, 496.0, 496.0, 496.0, 497.0, 496.0, 495.0, 494.0, 495.0, 495.0, 495.0, 496.0, 495.0, 498.0, 494.0, 493.0, 491.0, 493.0, 496.0, 496.0, 496.0, 495.0, 496.0, 494.0, 494.0, 495.0, 494.0, 495.0, 494.0, 495.0, 496.0, 496.0, 496.0, 496.0, 497.0, 496.0, 498.0, 498.0, 498.0, 496.0, 497.0, 494.0, 493.0, 494.0, 495.0, 495.0, 496.0, 495.0, 496.0, 492.0, 495.0, 493.0, 494.0, 495.0, 493.0, 496.0, 495.0, 495.0, 493.0, 493.0, 493.0, 494.0, 496.0, 492.0, 493.0, 495.0, 495.0, 494.0, 493.0, 494.0, 494.0, 493.0, 496.0, 496.0, 494.0, 493.0, 494.0, 496.0, 494.0, 496.0, 498.0, 497.0, 495.0, 493.0, 493.0, 497.0],
      "WindowWidth": [1036.0, 1034.0, 1030.0, 1029.0, 1028.0, 1025.0, 1031.0, 1030.0, 1031.0, 1030.0, 1030.0, 1031.0, 1031.0, 1029.0, 1026.0, 1029.0, 1029.0, 1030.0, 1030.0, 1028.0, 1029.0, 1030.0, 1030.0, 1029.0, 1035.0, 1034.0, 1039.0, 1037.0, 1037.0, 1033.0, 1029.0, 1027.0, 1030.0, 1031.0, 1031.0, 1031.0, 1030.0, 1029.0, 1031.0, 1035.0, 1031.0, 1036.0, 1036.0, 1038.0, 1036.0, 1036.0, 1039.0, 1035.0, 1034.0, 1033.0, 1030.0, 1028.0, 1031.0, 1026.0, 1032.0, 1032.0, 1030.0, 1028.0, 1030.0, 1033.0, 1029.0, 1033.0, 1031.0, 1030.0, 1030.0, 1031.0, 1031.0, 1029.0, 1031.0, 1030.0, 1033.0, 1033.0, 1032.0, 1033.0, 1032.0, 1031.0, 1029.0, 1030.0, 1030.0, 1030.0, 1032.0, 1030.0, 1035.0, 1028.0, 1028.0, 1024.0, 1027.0, 1032.0, 1032.0, 1032.0, 1030.0, 1031.0, 1027.0, 1028.0, 1030.0, 1029.0, 1029.0, 1028.0, 1029.0, 1031.0, 1032.0, 1031.0, 1032.0, 1035.0, 1034.0, 1036.0, 1037.0, 1035.0, 1033.0, 1034.0, 1028.0, 1027.0, 1028.0, 1031.0, 1030.0, 1031.0, 1030.0, 1031.0, 1025.0, 1030.0, 1027.0, 1028.0, 1029.0, 1027.0, 1032.0, 1030.0, 1031.0, 1027.0, 1027.0, 1026.0, 1029.0, 1032.0, 1025.0, 1026.0, 1029.0, 1029.0, 1027.0, 1027.0, 1027.0, 1028.0, 1027.0, 1032.0, 1032.0, 1029.0, 1026.0, 1028.0, 1031.0, 1029.0, 1032.0, 1035.0, 1033.0, 1030.0, 1027.0, 1028.0, 1035.0]
    },
    "slices": {}
  }
}