{
  "AcquisitionMatrixPE": 64,
  "AcquisitionNumber": 1,
  "AcquisitionTime": "16:56:20.895000",
  "BandwidthPerPixelPhaseEncode": 40.064,
  "BaseResolution": 64,
  "BodyPartExamined": "BRAIN",
  "ConsistencyInfo": "N4_VD13D_LATEST_20130810",
  "ConversionSoftware": "dcm2niix",
  "ConversionSoftwareVersion": "v1.0.20191031",
  "DerivedVendorReportedEchoSpacing": 0.000780002,
  "DeviceSerialNumber": "67007",
  "DwellTime": 5.3e-06,
  "EchoTime": 0.03,
  "EchoTrainLength": 31,
  "EffectiveEchoSpacing": 0.000390001,
  "FlipAngle": 75,
  "ImageOrientationPatientDICOM": [0.999026, 0.0399292, 0.0187867, -0.040125, 0.999143, 0.0101666],
  "ImageType": [
    "ORIGINAL",
    "PRIMARY",
    "M",
    "ND",
    "NORM",
    "MOSAIC"
],
  "ImagingFrequency": 123.211,
  "InPlanePhaseEncodingDirectionDICOM": "ROW",
  "InstitutionAddress": "Perth_Drive_100_London_Ontario_CA_N6A_5K8",
  "InstitutionName": "Robarts-CFMM",
  "InstitutionalDepartmentName": "CFMM",
  "MRAcquisitionType": "2D",
  "MagneticFieldStrength": 3,
  "Manufacturer": "Siemens",
  "ManufacturersModelName": "Prisma_fit",
  "Modality": "MR",
  "ParallelReductionFactorInPlane": 2,
  "PartialFourier": 1,
  "PatientPosition": "HFS",
  "PercentPhaseFOV": 100,
  "PhaseEncodingDirection": "i",
  "PhaseEncodingSteps": 63,
  "PhaseResolution": 1,
  "PixelBandwidth": 1475,
  "ProcedureStepDescription": "Owen_Naci",
  "ProtocolName": "Resting_State_light_sed",
  "PulseSequenceDetails": "%SiemensSeq%_ep2d_bold",
  "ReceiveCoilActiveElements": "HEA;HEP",
  "ReceiveCoilName": "Head_32",
  "ReconMatrixPE": 64,
  "RefLinesPE": 24,
  "RepetitionTime": 2,
  "SAR": 0.090657,
  "ScanOptions": "FS",
  "ScanningSequence": "EP",
  "SequenceName": "_epfid2d1_64",
  "SequenceVariant": "SK",
  "SeriesDescription": "Resting_State_light_sed",
  "SeriesNumber": 9,
  "ShimSetting": [5236, -6206, -4093, 291, 48, -67, 40, 78],
  "SliceThickness": 3,
  "SliceTiming": [1.92, 1.86, 1.8, 1.74, 1.68, 1.62, 1.56, 1.5, 1.44, 1.38, 1.32, 1.26, 1.2, 1.14, 1.08, 1.02, 0.96, 0.9, 0.84, 0.78, 0.72, 0.66, 0.6, 0.54, 0.48, 0.42, 0.36, 0.3, 0.24, 0.18, 0.12, 0.06, 0],
  "SoftwareVersions": "syngo_MR_D13D",
  "SpacingBetweenSlices": 3.75,
  "StationName": "AWP67007",
  "TaskName": "restlight",
  "TotalReadoutTime": 0.0245701,
  "TxRefAmp": 260.962,
  "dcmmeta_affine": [
    [-2.997077703475952, -0.12037507444620132, 0.06886753439903259, 93.86138153076172],
    [-0.11978748440742493, 2.9974288940429688, 0.04091459512710571, -69.20264434814453],
    [0.056360166519880295, -0.030499931424856186, 3.7491443157196045, -51.327613830566406],
    [0.0, 0.0, 0.0, 1.0]
],
  "dcmmeta_reorient_transform": [
    [0.0, -1.0, 0.0, 63.0],
    [1.0, 0.0, 0.0, 0.0],
    [0.0, 0.0, 1.0, 0.0],
    [0.0, 0.0, 0.0, 1.0]
],
  "dcmmeta_shape": [64, 64, 33, 256],
  "dcmmeta_slice_dim": 2,
  "dcmmeta_version": 0.6,
  "global": {
    "const": {
      "AcquisitionMatrix": [0, 64, 64, 0],
      "AngioFlag": "N",
      "BitsAllocated": 16,
      "BitsStored": 12,
      "BodyPartExamined": "BRAIN",
      "Columns": 384,
      "EchoNumbers": 1,
      "EchoTime": 30.0,
      "EchoTrainLength": 31,
      "FlipAngle": 75.0,
      "HighBit": 11,
      "ImageOrientationPatient": [0.99902588611759, 0.03992916120563, 0.01878672276838, -0.0401250239287, 0.99914294362948, 0.01016664399605],
      "ImagePositionPatient": [-546.55016322235, -618.38998520485, -67.146724675007],
      "ImageType": [
        "ORIGINAL",
        "PRIMARY",
        "M",
        "ND",
        "NORM",
        "MOSAIC"
],
      "ImagedNucleus": "1H",
      "ImagingFrequency": 123.21144,
      "InPlanePhaseEncodingDirection": "ROW",
      "MRAcquisitionType": "2D",
      "MagneticFieldStrength": 3.0,
      "Manufacturer": "SIEMENS",
      "ManufacturerModelName": "Prisma_fit",
      "Modality": "MR",
      "NumberOfAverages": 1.0,
      "NumberOfPhaseEncodingSteps": 63,
      "PercentPhaseFieldOfView": 100.0,
      "PercentSampling": 100.0,
      "PerformedProcedureStepStartTime": "160600.811000",
      "PhotometricInterpretation": "MONOCHROME2",
      "PixelBandwidth": 1475.0,
      "PixelRepresentation": 0,
      "PixelSpacing": [3.0, 3.0],
      "ProtocolName": "Resting State_light sed",
      "RepetitionTime": 2000.0,
      "Rows": 384,
      "SAR": 0.09065696390802,
      "SamplesPerPixel": 1,
      "ScanOptions": "FS",
      "ScanningSequence": "EP",
      "SequenceName": "*epfid2d1_64",
      "SequenceVariant": "SK",
      "SeriesDescription": "Resting State_light sed",
      "SeriesNumber": 9,
      "SeriesTime": "165706.011000",
      "SliceLocation": -50.347206784936,
      "SliceThickness": 3.0,
      "SmallestImagePixelValue": 0,
      "SoftwareVersions": "syngo MR D13D",
      "SpacingBetweenSlices": 3.7500000980463,
      "SpecificCharacterSet": "ISO_IR 100",
      "StudyID": "1",
      "StudyTime": "160600.752000",
      "TimeOfLastCalibration": ["123723.000000", "123723.000000"],
      "TransmitCoilName": "Body",
      "VariableFlipAngleFlag": "N",
      "WindowCenterWidthExplanation": "Algo1",
      "dBdt": 0.0},
    "slices": {}
  },
  "time": {
    "samples": {
      "AcquisitionNumber": [1, 2, 3, 4, 5, 6, 7, 8, 9, 10, 11, 12, 13, 14, 15, 16, 17, 18, 19, 20, 21, 22, 23, 24, 25, 26, 27, 28, 29, 30, 31, 32, 33, 34, 35, 36, 37, 38, 39, 40, 41, 42, 43, 44, 45, 46, 47, 48, 49, 50, 51, 52, 53, 54, 55, 56, 57, 58, 59, 60, 61, 62, 63, 64, 65, 66, 67, 68, 69, 70, 71, 72, 73, 74, 75, 76, 77, 78, 79, 80, 81, 82, 83, 84, 85, 86, 87, 88, 89, 90, 91, 92, 93, 94, 95, 96, 97, 98, 99, 100, 101, 102, 103, 104, 105, 106, 107, 108, 109, 110, 111, 112, 113, 114, 115, 116, 117, 118, 119, 120, 121, 122, 123, 124, 125, 126, 127, 128, 129, 130, 131, 132, 133, 134, 135, 136, 137, 138, 139, 140, 141, 142, 143, 144, 145, 146, 147, 148, 149, 150, 151, 152, 153, 154, 155, 156, 157, 158, 159, 160, 161, 162, 163, 164, 165, 166, 167, 168, 169, 170, 171, 172, 173, 174, 175, 176, 177, 178, 179, 180, 181, 182, 183, 184, 185, 186, 187, 188, 189, 190, 191, 192, 193, 194, 195, 196, 197, 198, 199, 200, 201, 202, 203, 204, 205, 206, 207, 208, 209, 210, 211, 212, 213, 214, 215, 216, 217, 218, 219, 220, 221, 222, 223, 224, 225, 226, 227, 228, 229, 230, 231, 232, 233, 234, 235, 236, 237, 238, 239, 240, 241, 242, 243, 244, 245, 246, 247, 248, 249, 250, 251, 252, 253, 254, 255, 256],
      "AcquisitionTime": ["165620.895000", "165622.895000", "165624.895000", "165626.895000", "165628.895000", "165630.895000", "165632.895000", "165634.895000", "165636.895000", "165638.895000", "165640.895000", "165642.895000", "165644.895000", "165646.895000", "165648.895000", "165650.895000", "165652.895000", "165654.895000", "165656.895000", "165658.895000", "165700.895000", "165702.895000", "165704.895000", "165706.895000", "165708.895000", "165710.895000", "165712.895000", "165714.895000", "165716.895000", "165718.895000", "165720.895000", "165722.895000", "165724.895000", "165726.895000", "165728.895000", "165730.895000", "165732.895000", "165734.895000", "165736.895000", "165738.895000", "165740.895000", "165742.895000", "165744.895000", "165746.895000", "165748.895000", "165750.895000", "165752.895000", "165754.895000", "165756.895000", "165758.895000", "165800.895000", "165802.895000", "165804.895000", "165806.895000", "165808.895000", "165810.895000", "165812.895000", "165814.895000", "165816.895000", "165818.895000", "165820.895000", "165822.895000", "165824.895000", "165826.895000", "165828.895000", "165830.895000", "165832.895000", "165834.895000", "165836.895000", "165838.895000", "165840.895000", "165842.895000", "165844.895000", "165846.895000", "165848.895000", "165850.895000", "165852.895000", "165854.895000", "165856.895000", "165858.897500", "165900.897500", "165902.897500", "165904.897500", "165906.897500", "165908.897500", "165910.897500", "165912.897500", "165914.897500", "165916.897500", "165918.897500", "165920.897500", "165922.897500", "165924.897500", "165926.897500", "165928.897500", "165930.897500", "165932.897500", "165934.897500", "165936.897500", "165938.897500", "165940.897500", "165942.897500", "165944.897500", "165946.897500", "165948.897500", "165950.897500", "165952.897500", "165954.897500", "165956.897500", "165958.897500", "170000.897500", "170002.897500", "170004.897500", "170006.897500", "170008.897500", "170010.897500", "170012.897500", "170014.897500", "170016.897500", "170018.897500", "170020.897500", "170022.897500", "170024.897500", "170026.897500", "170028.897500", "170030.897500", "170032.897500", "170034.897500", "170036.897500", "170038.897500", "170040.897500", "170042.897500", "170044.897500", "170046.897500", "170048.897500", "170050.897500", "170052.897500", "170054.897500", "170056.897500", "170058.897500", "170100.897500", "170102.897500", "170104.897500", "170106.897500", "170108.897500", "170110.897500", "170112.897500", "170114.897500", "170116.897500", "170118.897500", "170120.897500", "170122.897500", "170124.897500", "170126.897500", "170128.897500", "170130.897500", "170132.897500", "170134.897500", "170136.897500", "170138.897500", "170140.897500", "170142.897500", "170144.897500", "170146.897500", "170148.897500", "170150.897500", "170152.897500", "170154.897500", "170156.897500", "170158.897500", "170200.897500", "170202.897500", "170204.897500", "170206.897500", "170208.897500", "170210.897500", "170212.897500", "170214.897500", "170216.897500", "170218.897500", "170220.897500", "170222.897500", "170224.897500", "170226.897500", "170228.897500", "170230.897500", "170232.897500", "170234.897500", "170236.897500", "170238.897500", "170240.897500", "170242.897500", "170244.897500", "170246.897500", "170248.897500", "170250.897500", "170252.897500", "170254.897500", "170256.897500", "170258.897500", "170300.897500", "170302.897500", "170304.897500", "170306.897500", "170308.897500", "170310.897500", "170312.897500", "170314.897500", "170316.897500", "170318.897500", "170320.897500", "170322.897500", "170324.897500", "170326.897500", "170328.897500", "170330.897500", "170332.897500", "170334.897500", "170336.897500", "170338.897500", "170340.897500", "170342.897500", "170344.897500", "170346.897500", "170348.897500", "170350.897500", "170352.897500", "170354.897500", "170356.897500", "170358.897500", "170400.897500", "170402.897500", "170404.897500", "170406.897500", "170408.897500", "170410.897500", "170412.897500", "170414.897500", "170416.897500", "170418.897500", "170420.897500", "170422.897500", "170424.897500", "170426.897500", "170428.897500", "170430.897500", "170432.897500", "170434.897500", "170436.897500", "170438.897500", "170440.897500", "170442.897500", "170444.897500", "170446.897500", "170448.897500", "170450.897500"],
      "ContentTime": ["165706.015000", "165706.026000", "165706.029000", "165706.032000", "165706.035000", "165706.038000", "165706.040000", "165706.043000", "165706.046000", "165706.049000", "165706.051000", "165706.054000", "165706.057000", "165706.060000", "165706.063000", "165706.065000", "165706.068000", "165706.071000", "165706.079000", "165706.082000", "165706.085000", "165706.088000", "165706.091000", "165746.008000", "165746.011000", "165746.014000", "165746.016000", "165746.019000", "165746.022000", "165746.024000", "165746.027000", "165746.030000", "165746.032000", "165746.035000", "165746.038000", "165746.040000", "165746.043000", "165746.046000", "165746.049000", "165746.052000", "165746.055000", "165746.058000", "165746.061000", "165826.008000", "165826.011000", "165826.014000", "165826.017000", "165826.019000", "165826.022000", "165826.025000", "165826.028000", "165826.031000", "165826.034000", "165826.037000", "165826.039000", "165826.042000", "165826.046000", "165826.048000", "165826.051000", "165826.054000", "165826.056000", "165826.059000", "165826.062000", "165906.009000", "165906.012000", "165906.015000", "165906.018000", "165906.021000", "165906.024000", "165906.026000", "165906.029000", "165906.032000", "165906.035000", "165906.038000", "165906.041000", "165906.044000", "165906.047000", "165906.050000", "165906.053000", "165906.056000", "165906.059000", "165906.062000", "165906.064000", "165926.009000", "165926.012000", "165926.015000", "165926.018000", "165926.021000", "165926.024000", "165926.027000", "165926.030000", "165926.032000", "165926.035000", "170006.008000", "170006.011000", "170006.014000", "170006.016000", "170006.019000", "170006.022000", "170006.025000", "170006.028000", "170006.030000", "170006.033000", "170006.036000", "170006.039000", "170006.041000", "170006.045000", "170006.047000", "170006.050000", "170006.053000", "170006.056000", "170006.058000", "170006.062000", "170046.009000", "170046.012000", "170046.015000", "170046.018000", "170046.021000", "170046.024000", "170046.027000", "170046.030000", "170046.033000", "170046.035000", "170046.038000", "170046.041000", "170046.044000", "170046.047000", "170046.050000", "170046.053000", "170046.055000", "170046.058000", "170046.060000", "170046.063000", "170126.009000", "170126.012000", "170126.015000", "170126.018000", "170126.021000", "170126.024000", "170126.027000", "170126.030000", "170126.033000", "170126.035000", "170126.038000", "170126.041000", "170126.043000", "170126.055000", "170126.058000", "170126.061000", "170126.064000", "170126.066000", "170126.069000", "170126.072000", "170206.008000", "170206.015000", "170206.018000", "170206.021000", "170206.023000", "170206.026000", "170206.029000", "170206.032000", "170206.035000", "170206.038000", "170206.041000", "170206.043000", "170206.046000", "170206.049000", "170206.052000", "170206.055000", "170206.058000", "170206.060000", "170206.063000", "170206.066000", "170246.008000", "170246.011000", "170246.014000", "170246.017000", "170246.020000", "170246.023000", "170246.025000", "170246.028000", "170246.031000", "170246.034000", "170246.036000", "170246.039000", "170246.042000", "170246.045000", "170246.048000", "170246.051000", "170246.053000", "170246.056000", "170246.059000", "170246.062000", "170326.009000", "170326.012000", "170326.015000", "170326.018000", "170326.021000", "170326.024000", "170326.026000", "170326.029000", "170326.032000", "170326.035000", "170326.038000", "170326.041000", "170326.044000", "170326.046000", "170326.049000", "170326.052000", "170326.055000", "170326.058000", "170326.060000", "170326.063000", "170406.009000", "170406.013000", "170406.015000", "170406.018000", "170406.021000", "170406.024000", "170406.027000", "170406.030000", "170406.033000", "170406.036000", "170406.038000", "170406.042000", "170406.045000", "170406.048000", "170406.051000", "170406.054000", "170406.057000", "170406.059000", "170406.062000", "170406.065000", "170446.008000", "170446.011000", "170446.014000", "170446.017000", "170446.019000", "170446.022000", "170446.025000", "170446.027000", "170446.030000", "170446.033000", "170446.035000", "170446.038000", "170446.041000", "170446.044000", "170446.046000", "170446.049000", "170446.052000", "170446.055000", "170446.057000", "170446.061000", "170451.445000", "170451.449000", "170451.451000"],
      "InstanceCreationTime": ["165706.015000", "165706.026000", "165706.029000", "165706.032000", "165706.035000", "165706.038000", "165706.040000", "165706.043000", "165706.046000", "165706.049000", "165706.051000", "165706.054000", "165706.057000", "165706.060000", "165706.063000", "165706.065000", "165706.068000", "165706.071000", "165706.079000", "165706.082000", "165706.085000", "165706.088000", "165706.091000", "165746.008000", "165746.011000", "165746.014000", "165746.016000", "165746.019000", "165746.022000", "165746.024000", "165746.027000", "165746.030000", "165746.032000", "165746.035000", "165746.038000", "165746.040000", "165746.043000", "165746.046000", "165746.049000", "165746.052000", "165746.055000", "165746.058000", "165746.061000", "165826.008000", "165826.011000", "165826.014000", "165826.017000", "165826.019000", "165826.022000", "165826.025000", "165826.028000", "165826.031000", "165826.034000", "165826.037000", "165826.039000", "165826.042000", "165826.046000", "165826.048000", "165826.051000", "165826.054000", "165826.056000", "165826.059000", "165826.062000", "165906.009000", "165906.012000", "165906.015000", "165906.018000", "165906.021000", "165906.024000", "165906.026000", "165906.029000", "165906.032000", "165906.035000", "165906.038000", "165906.041000", "165906.044000", "165906.047000", "165906.050000", "165906.053000", "165906.056000", "165906.059000", "165906.062000", "165906.064000", "165926.009000", "165926.012000", "165926.015000", "165926.018000", "165926.021000", "165926.024000", "165926.027000", "165926.030000", "165926.032000", "165926.035000", "170006.008000", "170006.011000", "170006.014000", "170006.016000", "170006.019000", "170006.022000", "170006.025000", "170006.028000", "170006.030000", "170006.033000", "170006.036000", "170006.039000", "170006.041000", "170006.045000", "170006.047000", "170006.050000", "170006.053000", "170006.056000", "170006.058000", "170006.062000", "170046.009000", "170046.012000", "170046.015000", "170046.018000", "170046.021000", "170046.024000", "170046.027000", "170046.030000", "170046.033000", "170046.035000", "170046.038000", "170046.041000", "170046.044000", "170046.047000", "170046.050000", "170046.053000", "170046.055000", "170046.058000", "170046.060000", "170046.063000", "170126.009000", "170126.012000", "170126.015000", "170126.018000", "170126.021000", "170126.024000", "170126.027000", "170126.030000", "170126.033000", "170126.035000", "170126.038000", "170126.041000", "170126.043000", "170126.055000", "170126.058000", "170126.061000", "170126.064000", "170126.066000", "170126.069000", "170126.072000", "170206.008000", "170206.015000", "170206.018000", "170206.021000", "170206.023000", "170206.026000", "170206.029000", "170206.032000", "170206.035000", "170206.038000", "170206.041000", "170206.043000", "170206.046000", "170206.049000", "170206.052000", "170206.055000", "170206.058000", "170206.060000", "170206.063000", "170206.066000", "170246.008000", "170246.011000", "170246.014000", "170246.017000", "170246.020000", "170246.023000", "170246.025000", "170246.028000", "170246.031000", "170246.034000", "170246.036000", "170246.039000", "170246.042000", "170246.045000", "170246.048000", "170246.051000", "170246.053000", "170246.056000", "170246.059000", "170246.062000", "170326.009000", "170326.012000", "170326.015000", "170326.018000", "170326.021000", "170326.024000", "170326.026000", "170326.029000", "170326.032000", "170326.035000", "170326.038000", "170326.041000", "170326.044000", "170326.046000", "170326.049000", "170326.052000", "170326.055000", "170326.058000", "170326.060000", "170326.063000", "170406.009000", "170406.013000", "170406.015000", "170406.018000", "170406.021000", "170406.024000", "170406.027000", "170406.030000", "170406.033000", "170406.036000", "170406.038000", "170406.042000", "170406.045000", "170406.048000", "170406.051000", "170406.054000", "170406.057000", "170406.059000", "170406.062000", "170406.065000", "170446.008000", "170446.011000", "170446.014000", "170446.017000", "170446.019000", "170446.022000", "170446.025000", "170446.027000", "170446.030000", "170446.033000", "170446.035000", "170446.038000", "170446.041000", "170446.044000", "170446.046000", "170446.049000", "170446.052000", "170446.055000", "170446.057000", "170446.061000", "170451.445000", "170451.449000", "170451.451000"],
      "InstanceNumber": [1, 2, 3, 4, 5, 6, 7, 8, 9, 10, 11, 12, 13, 14, 15, 16, 17, 18, 19, 20, 21, 22, 23, 24, 25, 26, 27, 28, 29, 30, 31, 32, 33, 34, 35, 36, 37, 38, 39, 40, 41, 42, 43, 44, 45, 46, 47, 48, 49, 50, 51, 52, 53, 54, 55, 56, 57, 58, 59, 60, 61, 62, 63, 64, 65, 66, 67, 68, 69, 70, 71, 72, 73, 74, 75, 76, 77, 78, 79, 80, 81, 82, 83, 84, 85, 86, 87, 88, 89, 90, 91, 92, 93, 94, 95, 96, 97, 98, 99, 100, 101, 102, 103, 104, 105, 106, 107, 108, 109, 110, 111, 112, 113, 114, 115, 116, 117, 118, 119, 120, 121, 122, 123, 124, 125, 126, 127, 128, 129, 130, 131, 132, 133, 134, 135, 136, 137, 138, 139, 140, 141, 142, 143, 144, 145, 146, 147, 148, 149, 150, 151, 152, 153, 154, 155, 156, 157, 158, 159, 160, 161, 162, 163, 164, 165, 166, 167, 168, 169, 170, 171, 172, 173, 174, 175, 176, 177, 178, 179, 180, 181, 182, 183, 184, 185, 186, 187, 188, 189, 190, 191, 192, 193, 194, 195, 196, 197, 198, 199, 200, 201, 202, 203, 204, 205, 206, 207, 208, 209, 210, 211, 212, 213, 214, 215, 216, 217, 218, 219, 220, 221, 222, 223, 224, 225, 226, 227, 228, 229, 230, 231, 232, 233, 234, 235, 236, 237, 238, 239, 240, 241, 242, 243, 244, 245, 246, 247, 248, 249, 250, 251, 252, 253, 254, 255, 256],
      "LargestImagePixelValue": [1084, 1059, 1161, 1172, 958, 1180, 969, 1048, 991, 1129, 984, 1050, 1106, 1112, 1143, 1155, 974, 1022, 1039, 1114, 1060, 1050, 1099, 1201, 1137, 1171, 1143, 1117, 1091, 998, 1095, 1019, 1130, 1118, 1086, 1189, 1056, 1133, 1117, 1159, 1120, 1128, 1101, 1174, 1129, 1152, 1108, 1182, 1134, 1187, 1080, 1244, 1216, 1192, 1295, 1417, 1040, 1206, 1022, 1162, 1080, 1104, 1055, 1102, 1183, 1242, 1048, 1171, 1158, 1040, 1084, 1235, 1240, 1096, 1128, 1207, 1001, 1066, 1016, 954, 1171, 1012, 1075, 1253, 912, 1301, 1169, 1339, 1147, 1174, 1243, 1130, 1052, 1020, 1091, 1022, 1067, 935, 1100, 1289, 1027, 1027, 1072, 1107, 1116, 1094, 1067, 1154, 1151, 1037, 1020, 1233, 1188, 1037, 1102, 1135, 962, 1115, 1020, 1075, 1031, 1230, 1091, 1226, 1111, 1124, 1441, 1108, 1110, 937, 1040, 967, 1021, 1038, 1087, 1087, 1073, 1095, 1053, 1151, 1032, 1269, 971, 1095, 1099, 1081, 1062, 1047, 1101, 1027, 1075, 1096, 1140, 1110, 1204, 1092, 1061, 1129, 1206, 1037, 1199, 1105, 1179, 1122, 1144, 1135, 1094, 1202, 1138, 1134, 1054, 1128, 1203, 1060, 1082, 1137, 1090, 1100, 1082, 1083, 1223, 1217, 1311, 1382, 1287, 982, 1178, 1035, 1124, 1232, 1128, 1004, 1084, 1033, 1124, 993, 1162, 1037, 1115, 1136, 1040, 1121, 1085, 1192, 1044, 1178, 1152, 1001, 1094, 1027, 1179, 1131, 1093, 1034, 1178, 1067, 1187, 1188, 1123, 1140, 1010, 1195, 979, 1194, 1060, 1129, 1145, 1017, 1067, 1181, 949, 1172, 1044, 1136, 1032, 1090, 1088, 1187, 1038, 1124, 1095, 1048, 1161, 1120, 994, 1159, 1222, 931, 1069, 1209, 1092, 1393, 1233, 1313, 1004, 1067],
      "WindowCenter": [498.0, 497.0, 499.0, 497.0, 497.0, 498.0, 496.0, 498.0, 499.0, 501.0, 501.0, 501.0, 502.0, 501.0, 501.0, 501.0, 500.0, 501.0, 503.0, 504.0, 503.0, 504.0, 504.0, 505.0, 504.0, 504.0, 503.0, 503.0, 503.0, 503.0, 505.0, 504.0, 506.0, 506.0, 506.0, 506.0, 506.0, 507.0, 507.0, 507.0, 507.0, 508.0, 508.0, 508.0, 508.0, 508.0, 508.0, 509.0, 508.0, 508.0, 508.0, 510.0, 508.0, 508.0, 506.0, 506.0, 500.0, 501.0, 499.0, 501.0, 500.0, 502.0, 502.0, 503.0, 504.0, 506.0, 503.0, 503.0, 503.0, 502.0, 504.0, 504.0, 503.0, 503.0, 502.0, 503.0, 500.0, 501.0, 502.0, 502.0, 506.0, 504.0, 504.0, 506.0, 503.0, 507.0, 502.0, 505.0, 505.0, 501.0, 498.0, 495.0, 493.0, 494.0, 494.0, 494.0, 495.0, 496.0, 499.0, 503.0, 501.0, 500.0, 500.0, 499.0, 498.0, 498.0, 497.0, 497.0, 496.0, 495.0, 495.0, 497.0, 496.0, 496.0, 497.0, 497.0, 495.0, 497.0, 497.0, 498.0, 499.0, 504.0, 505.0, 505.0, 503.0, 500.0, 499.0, 492.0, 495.0, 499.0, 494.0, 493.0, 495.0, 496.0, 496.0, 495.0, 496.0, 497.0, 498.0, 501.0, 500.0, 502.0, 500.0, 502.0, 502.0, 503.0, 503.0, 504.0, 504.0, 504.0, 505.0, 506.0, 506.0, 507.0, 506.0, 506.0, 505.0, 506.0, 506.0, 505.0, 505.0, 504.0, 504.0, 504.0, 504.0, 503.0, 504.0, 505.0, 505.0, 504.0, 504.0, 505.0, 505.0, 503.0, 504.0, 505.0, 505.0, 505.0, 506.0, 505.0, 506.0, 504.0, 504.0, 501.0, 500.0, 498.0, 502.0, 498.0, 498.0, 496.0, 493.0, 492.0, 493.0, 495.0, 496.0, 496.0, 498.0, 497.0, 500.0, 503.0, 501.0, 501.0, 500.0, 501.0, 498.0, 499.0, 498.0, 497.0, 498.0, 497.0, 499.0, 498.0, 499.0, 497.0, 497.0, 496.0, 497.0, 497.0, 498.0, 498.0, 502.0, 500.0, 497.0, 498.0, 497.0, 498.0, 498.0, 496.0, 497.0, 499.0, 498.0, 499.0, 499.0, 501.0, 501.0, 501.0, 501.0, 503.0, 502.0, 503.0, 503.0, 504.0, 505.0, 505.0, 503.0, 504.0, 504.0, 504.0, 505.0, 504.0, 503.0, 504.0, 500.0, 498.0, 495.0, 495.0],
      "WindowWidth": [1036.0, 1034.0, 1037.0, 1035.0, 1034.0, 1036.0, 1033.0, 1037.0, 1039.0, 1041.0, 1043.0, 1043.0, 1043.0, 1042.0, 1042.0, 1041.0, 1041.0, 1043.0, 1046.0, 1048.0, 1047.0, 1048.0, 1048.0, 1049.0, 1047.0, 1047.0, 1046.0, 1046.0, 1046.0, 1046.0, 1049.0, 1049.0, 1051.0, 1051.0, 1052.0, 1052.0, 1052.0, 1053.0, 1053.0, 1054.0, 1053.0, 1055.0, 1055.0, 1056.0, 1055.0, 1056.0, 1056.0, 1057.0, 1055.0, 1055.0, 1055.0, 1058.0, 1056.0, 1055.0, 1052.0, 1051.0, 1041.0, 1042.0, 1039.0, 1042.0, 1041.0, 1044.0, 1044.0, 1046.0, 1047.0, 1052.0, 1047.0, 1046.0, 1046.0, 1044.0, 1047.0, 1048.0, 1046.0, 1045.0, 1044.0, 1045.0, 1040.0, 1042.0, 1043.0, 1044.0, 1052.0, 1049.0, 1049.0, 1052.0, 1046.0, 1053.0, 1046.0, 1050.0, 1050.0, 1041.0, 1037.0, 1030.0, 1027.0, 1029.0, 1029.0, 1029.0, 1031.0, 1032.0, 1038.0, 1047.0, 1043.0, 1039.0, 1040.0, 1038.0, 1036.0, 1036.0, 1034.0, 1035.0, 1031.0, 1031.0, 1031.0, 1033.0, 1031.0, 1033.0, 1034.0, 1035.0, 1032.0, 1035.0, 1034.0, 1036.0, 1038.0, 1047.0, 1049.0, 1051.0, 1046.0, 1040.0, 1038.0, 1024.0, 1032.0, 1039.0, 1029.0, 1027.0, 1031.0, 1032.0, 1032.0, 1030.0, 1033.0, 1035.0, 1037.0, 1041.0, 1041.0, 1044.0, 1041.0, 1044.0, 1045.0, 1045.0, 1046.0, 1047.0, 1048.0, 1048.0, 1050.0, 1051.0, 1052.0, 1052.0, 1052.0, 1052.0, 1051.0, 1052.0, 1052.0, 1050.0, 1050.0, 1047.0, 1048.0, 1047.0, 1047.0, 1046.0, 1047.0, 1049.0, 1049.0, 1047.0, 1048.0, 1050.0, 1049.0, 1046.0, 1048.0, 1049.0, 1050.0, 1050.0, 1052.0, 1049.0, 1051.0, 1048.0, 1048.0, 1041.0, 1040.0, 1037.0, 1044.0, 1036.0, 1035.0, 1032.0, 1026.0, 1025.0, 1027.0, 1030.0, 1033.0, 1034.0, 1037.0, 1035.0, 1039.0, 1045.0, 1042.0, 1042.0, 1040.0, 1042.0, 1037.0, 1038.0, 1036.0, 1034.0, 1035.0, 1035.0, 1038.0, 1036.0, 1037.0, 1034.0, 1035.0, 1032.0, 1035.0, 1034.0, 1035.0, 1035.0, 1046.0, 1040.0, 1034.0, 1036.0, 1035.0, 1036.0, 1036.0, 1033.0, 1034.0, 1038.0, 1036.0, 1038.0, 1038.0, 1042.0, 1042.0, 1042.0, 1042.0, 1045.0, 1043.0, 1046.0, 1046.0, 1048.0, 1050.0, 1049.0, 1046.0, 1048.0, 1048.0, 1048.0, 1051.0, 1048.0, 1047.0, 1047.0, 1040.0, 1037.0, 1031.0, 1031.0]
    },
    "slices": {}
  }
}