{
  "AcquisitionMatrixPE": 64,
  "AcquisitionNumber": 1,
  "AcquisitionTime": "16:16:24.490000",
  "BandwidthPerPixelPhaseEncode": 40.064,
  "BaseResolution": 64,
  "BodyPartExamined": "BRAIN",
  "ConsistencyInfo": "N4_VD13D_LATEST_20130810",
  "ConversionSoftware": "dcm2niix",
  "ConversionSoftwareVersion": "v1.0.20191031",
  "DerivedVendorReportedEchoSpacing": 0.000780002,
  "DeviceSerialNumber": "67007",
  "DwellTime": 5.3e-06,
  "EchoTime": 0.03,
  "EchoTrainLength": 31,
  "EffectiveEchoSpacing": 0.000390001,
  "FlipAngle": 75,
  "ImageOrientationPatientDICOM": [0.999026, 0.0399292, 0.0187867, -0.040125, 0.999143, 0.0101666],
  "ImageType": [
    "ORIGINAL",
    "PRIMARY",
    "M",
    "ND",
    "NORM",
    "MOSAIC"
],
  "ImagingFrequency": 123.211,
  "InPlanePhaseEncodingDirectionDICOM": "ROW",
  "InstitutionAddress": "Perth_Drive_100_London_Ontario_CA_N6A_5K8",
  "InstitutionName": "Robarts-CFMM",
  "InstitutionalDepartmentName": "CFMM",
  "MRAcquisitionType": "2D",
  "MagneticFieldStrength": 3,
  "Manufacturer": "Siemens",
  "ManufacturersModelName": "Prisma_fit",
  "Modality": "MR",
  "ParallelReductionFactorInPlane": 2,
  "PartialFourier": 1,
  "PatientPosition": "HFS",
  "PercentPhaseFOV": 100,
  "PhaseEncodingDirection": "i",
  "PhaseEncodingSteps": 63,
  "PhaseResolution": 1,
  "PixelBandwidth": 1475,
  "ProcedureStepDescription": "Owen_Naci",
  "ProtocolName": "taken",
  "PulseSequenceDetails": "%SiemensSeq%_ep2d_bold",
  "ReceiveCoilActiveElements": "HEA;HEP",
  "ReceiveCoilName": "Head_32",
  "ReconMatrixPE": 64,
  "RefLinesPE": 24,
  "RepetitionTime": 2,
  "SAR": 0.0904888,
  "ScanOptions": "FS",
  "ScanningSequence": "EP",
  "SequenceName": "_epfid2d1_64",
  "SequenceVariant": "SK",
  "SeriesDescription": "taken",
  "SeriesNumber": 3,
  "ShimSetting": [5236, -6206, -4093, 291, 48, -67, 40, 78],
  "SliceThickness": 3,
  "SliceTiming": [1.9175, 1.8575, 1.7975, 1.7375, 1.6775, 1.6175, 1.5575, 1.4975, 1.44, 1.38, 1.32, 1.26, 1.2, 1.14, 1.08, 1.02, 0.96, 0.9, 0.84, 0.78, 0.72, 0.66, 0.6, 0.54, 0.48, 0.42, 0.36, 0.3, 0.24, 0.18, 0.12, 0.06, 0],
  "SoftwareVersions": "syngo_MR_D13D",
  "SpacingBetweenSlices": 3.75,
  "StationName": "AWP67007",
  "TaskName": "audio",
  "TotalReadoutTime": 0.0245701,
  "TxRefAmp": 260.962,
  "dcmmeta_affine": [
    [-2.997077703475952, -0.12037507444620132, 0.06886753439903259, 93.86138153076172],
    [-0.11978748440742493, 2.9974288940429688, 0.04091459512710571, -69.20264434814453],
    [0.056360166519880295, -0.030499931424856186, 3.7491443157196045, -51.327613830566406],
    [0.0, 0.0, 0.0, 1.0]
],
  "dcmmeta_reorient_transform": [
    [0.0, -1.0, 0.0, 63.0],
    [1.0, 0.0, 0.0, 0.0],
    [0.0, 0.0, 1.0, 0.0],
    [0.0, 0.0, 0.0, 1.0]
],
  "dcmmeta_shape": [64, 64, 33, 155],
  "dcmmeta_slice_dim": 2,
  "dcmmeta_version": 0.6,
  "global": {
    "const": {
      "AcquisitionMatrix": [0, 64, 64, 0],
      "AngioFlag": "N",
      "BitsAllocated": 16,
      "BitsStored": 12,
      "BodyPartExamined": "BRAIN",
      "Columns": 384,
      "EchoNumbers": 1,
      "EchoTime": 30.0,
      "EchoTrainLength": 31,
      "FlipAngle": 75.0,
      "HighBit": 11,
      "ImageOrientationPatient": [0.99902588611759, 0.03992916120563, 0.01878672276838, -0.0401250239287, 0.99914294362948, 0.01016664399605],
      "ImagePositionPatient": [-546.55016322235, -618.38998520485, -67.146724675007],
      "ImageType": [
        "ORIGINAL",
        "PRIMARY",
        "M",
        "ND",
        "NORM",
        "MOSAIC"
],
      "ImagedNucleus": "1H",
      "ImagingFrequency": 123.211436,
      "InPlanePhaseEncodingDirection": "ROW",
      "MRAcquisitionType": "2D",
      "MagneticFieldStrength": 3.0,
      "Manufacturer": "SIEMENS",
      "ManufacturerModelName": "Prisma_fit",
      "Modality": "MR",
      "NumberOfAverages": 1.0,
      "NumberOfPhaseEncodingSteps": 63,
      "PercentPhaseFieldOfView": 100.0,
      "PercentSampling": 100.0,
      "PerformedProcedureStepStartTime": "160600.811000",
      "PhotometricInterpretation": "MONOCHROME2",
      "PixelBandwidth": 1475.0,
      "PixelRepresentation": 0,
      "PixelSpacing": [3.0, 3.0],
      "ProtocolName": "taken",
      "RepetitionTime": 2000.0,
      "Rows": 384,
      "SAR": 0.090488829481,
      "SamplesPerPixel": 1,
      "ScanOptions": "FS",
      "ScanningSequence": "EP",
      "SequenceName": "*epfid2d1_64",
      "SequenceVariant": "SK",
      "SeriesDescription": "taken",
      "SeriesNumber": 3,
      "SeriesTime": "161706.010000",
      "SliceLocation": -50.347206784936,
      "SliceThickness": 3.0,
      "SmallestImagePixelValue": 0,
      "SoftwareVersions": "syngo MR D13D",
      "SpacingBetweenSlices": 3.7500000980463,
      "SpecificCharacterSet": "ISO_IR 100",
      "StudyID": "1",
      "StudyTime": "160600.752000",
      "TimeOfLastCalibration": ["123723.000000", "123723.000000"],
      "TransmitCoilName": "Body",
      "VariableFlipAngleFlag": "N",
      "WindowCenterWidthExplanation": "Algo1",
      "dBdt": 0.0},
    "slices": {}
  },
  "time": {
    "samples": {
      "AcquisitionNumber": [1, 2, 3, 4, 5, 6, 7, 8, 9, 10, 11, 12, 13, 14, 15, 16, 17, 18, 19, 20, 21, 22, 23, 24, 25, 26, 27, 28, 29, 30, 31, 32, 33, 34, 35, 36, 37, 38, 39, 40, 41, 42, 43, 44, 45, 46, 47, 48, 49, 50, 51, 52, 53, 54, 55, 56, 57, 58, 59, 60, 61, 62, 63, 64, 65, 66, 67, 68, 69, 70, 71, 72, 73, 74, 75, 76, 77, 78, 79, 80, 81, 82, 83, 84, 85, 86, 87, 88, 89, 90, 91, 92, 93, 94, 95, 96, 97, 98, 99, 100, 101, 102, 103, 104, 105, 106, 107, 108, 109, 110, 111, 112, 113, 114, 115, 116, 117, 118, 119, 120, 121, 122, 123, 124, 125, 126, 127, 128, 129, 130, 131, 132, 133, 134, 135, 136, 137, 138, 139, 140, 141, 142, 143, 144, 145, 146, 147, 148, 149, 150, 151, 152, 153, 154, 155],
      "AcquisitionTime": ["161624.490000", "161626.490000", "161628.490000", "161630.490000", "161632.490000", "161634.490000", "161636.490000", "161638.490000", "161640.492500", "161642.492500", "161644.492500", "161646.492500", "161648.492500", "161650.492500", "161652.492500", "161654.492500", "161656.492500", "161658.492500", "161700.492500", "161702.492500", "161704.492500", "161706.492500", "161708.492500", "161710.492500", "161712.492500", "161714.492500", "161716.492500", "161718.492500", "161720.492500", "161722.492500", "161724.492500", "161726.492500", "161728.492500", "161730.492500", "161732.492500", "161734.492500", "161736.492500", "161738.492500", "161740.492500", "161742.492500", "161744.492500", "161746.492500", "161748.492500", "161750.492500", "161752.492500", "161754.492500", "161756.492500", "161758.492500", "161800.492500", "161802.492500", "161804.492500", "161806.492500", "161808.492500", "161810.492500", "161812.492500", "161814.492500", "161816.492500", "161818.492500", "161820.492500", "161822.492500", "161824.492500", "161826.492500", "161828.492500", "161830.492500", "161832.492500", "161834.492500", "161836.492500", "161838.492500", "161840.492500", "161842.492500", "161844.492500", "161846.492500", "161848.492500", "161850.492500", "161852.492500", "161854.492500", "161856.492500", "161858.492500", "161900.492500", "161902.492500", "161904.492500", "161906.492500", "161908.492500", "161910.492500", "161912.492500", "161914.492500", "161916.492500", "161918.492500", "161920.492500", "161922.492500", "161924.492500", "161926.492500", "161928.492500", "161930.492500", "161932.492500", "161934.492500", "161936.492500", "161938.492500", "161940.492500", "161942.492500", "161944.492500", "161946.492500", "161948.492500", "161950.492500", "161952.492500", "161954.492500", "161956.492500", "161958.492500", "162000.492500", "162002.492500", "162004.492500", "162006.492500", "162008.492500", "162010.492500", "162012.492500", "162014.492500", "162016.492500", "162018.492500", "162020.492500", "162022.492500", "162024.492500", "162026.492500", "162028.492500", "162030.492500", "162032.492500", "162034.492500", "162036.492500", "162038.492500", "162040.492500", "162042.492500", "162044.492500", "162046.492500", "162048.492500", "162050.492500", "162052.492500", "162054.492500", "162056.492500", "162058.492500", "162100.492500", "162102.492500", "162104.492500", "162106.492500", "162108.492500", "162110.492500", "162112.492500", "162114.492500", "162116.492500", "162118.492500", "162120.492500", "162122.492500", "162124.492500", "162126.492500", "162128.492500", "162130.492500", "162132.492500"],
      "ContentTime": ["161706.015000", "161706.019000", "161706.026000", "161706.029000", "161706.032000", "161706.035000", "161706.037000", "161706.040000", "161706.043000", "161706.050000", "161706.053000", "161706.056000", "161706.058000", "161706.062000", "161706.064000", "161706.067000", "161706.070000", "161706.073000", "161706.076000", "161706.079000", "161706.082000", "161746.009000", "161746.013000", "161746.016000", "161746.018000", "161746.021000", "161746.024000", "161746.027000", "161746.030000", "161746.032000", "161746.036000", "161746.039000", "161746.042000", "161746.045000", "161746.048000", "161746.051000", "161746.053000", "161746.056000", "161746.060000", "161746.062000", "161746.065000", "161826.008000", "161826.011000", "161826.014000", "161826.016000", "161826.019000", "161826.022000", "161826.025000", "161826.028000", "161826.030000", "161826.033000", "161826.036000", "161826.039000", "161826.042000", "161826.045000", "161826.048000", "161826.051000", "161826.054000", "161826.057000", "161826.060000", "161826.063000", "161906.009000", "161906.012000", "161906.015000", "161906.018000", "161906.020000", "161906.023000", "161906.026000", "161906.029000", "161906.032000", "161906.034000", "161906.037000", "161906.040000", "161906.043000", "161906.046000", "161906.049000", "161906.052000", "161906.055000", "161906.058000", "161906.061000", "161906.063000", "161926.009000", "161926.013000", "161926.016000", "161926.019000", "161926.021000", "161926.024000", "161926.027000", "161926.030000", "161926.032000", "161926.035000", "162006.009000", "162006.013000", "162006.016000", "162006.019000", "162006.021000", "162006.024000", "162006.027000", "162006.030000", "162006.032000", "162006.036000", "162006.038000", "162006.041000", "162006.044000", "162006.047000", "162006.050000", "162006.053000", "162006.056000", "162006.059000", "162006.062000", "162006.065000", "162046.008000", "162046.011000", "162046.014000", "162046.017000", "162046.020000", "162046.023000", "162046.026000", "162046.029000", "162046.031000", "162046.034000", "162046.037000", "162046.040000", "162046.043000", "162046.046000", "162046.048000", "162046.051000", "162046.054000", "162046.057000", "162046.060000", "162046.063000", "162126.008000", "162126.012000", "162126.015000", "162126.018000", "162126.020000", "162126.023000", "162126.026000", "162126.029000", "162126.032000", "162126.034000", "162126.037000", "162126.040000", "162126.043000", "162126.046000", "162126.049000", "162126.052000", "162126.055000", "162126.058000", "162126.060000", "162126.063000", "162133.343000", "162133.347000", "162133.350000", "162133.353000"],
      "InstanceCreationTime": ["161706.015000", "161706.019000", "161706.026000", "161706.029000", "161706.032000", "161706.035000", "161706.037000", "161706.040000", "161706.043000", "161706.050000", "161706.053000", "161706.056000", "161706.058000", "161706.062000", "161706.064000", "161706.067000", "161706.070000", "161706.073000", "161706.076000", "161706.079000", "161706.082000", "161746.009000", "161746.013000", "161746.016000", "161746.018000", "161746.021000", "161746.024000", "161746.027000", "161746.030000", "161746.032000", "161746.036000", "161746.039000", "161746.042000", "161746.045000", "161746.048000", "161746.051000", "161746.053000", "161746.056000", "161746.060000", "161746.062000", "161746.065000", "161826.008000", "161826.011000", "161826.014000", "161826.016000", "161826.019000", "161826.022000", "161826.025000", "161826.028000", "161826.030000", "161826.033000", "161826.036000", "161826.039000", "161826.042000", "161826.045000", "161826.048000", "161826.051000", "161826.054000", "161826.057000", "161826.060000", "161826.063000", "161906.009000", "161906.012000", "161906.015000", "161906.018000", "161906.020000", "161906.023000", "161906.026000", "161906.029000", "161906.032000", "161906.034000", "161906.037000", "161906.040000", "161906.043000", "161906.046000", "161906.049000", "161906.052000", "161906.055000", "161906.058000", "161906.061000", "161906.063000", "161926.009000", "161926.013000", "161926.016000", "161926.019000", "161926.021000", "161926.024000", "161926.027000", "161926.030000", "161926.032000", "161926.035000", "162006.009000", "162006.013000", "162006.016000", "162006.019000", "162006.021000", "162006.024000", "162006.027000", "162006.030000", "162006.032000", "162006.036000", "162006.038000", "162006.041000", "162006.044000", "162006.047000", "162006.050000", "162006.053000", "162006.056000", "162006.059000", "162006.062000", "162006.065000", "162046.008000", "162046.011000", "162046.014000", "162046.017000", "162046.020000", "162046.023000", "162046.026000", "162046.029000", "162046.031000", "162046.034000", "162046.037000", "162046.040000", "162046.043000", "162046.046000", "162046.048000", "162046.051000", "162046.054000", "162046.057000", "162046.060000", "162046.063000", "162126.008000", "162126.012000", "162126.015000", "162126.018000", "162126.020000", "162126.023000", "162126.026000", "162126.029000", "162126.032000", "162126.034000", "162126.037000", "162126.040000", "162126.043000", "162126.046000", "162126.049000", "162126.052000", "162126.055000", "162126.058000", "162126.060000", "162126.063000", "162133.343000", "162133.347000", "162133.350000", "162133.353000"],
      "InstanceNumber": [1, 2, 3, 4, 5, 6, 7, 8, 9, 10, 11, 12, 13, 14, 15, 16, 17, 18, 19, 20, 21, 22, 23, 24, 25, 26, 27, 28, 29, 30, 31, 32, 33, 34, 35, 36, 37, 38, 39, 40, 41, 42, 43, 44, 45, 46, 47, 48, 49, 50, 51, 52, 53, 54, 55, 56, 57, 58, 59, 60, 61, 62, 63, 64, 65, 66, 67, 68, 69, 70, 71, 72, 73, 74, 75, 76, 77, 78, 79, 80, 81, 82, 83, 84, 85, 86, 87, 88, 89, 90, 91, 92, 93, 94, 95, 96, 97, 98, 99, 100, 101, 102, 103, 104, 105, 106, 107, 108, 109, 110, 111, 112, 113, 114, 115, 116, 117, 118, 119, 120, 121, 122, 123, 124, 125, 126, 127, 128, 129, 130, 131, 132, 133, 134, 135, 136, 137, 138, 139, 140, 141, 142, 143, 144, 145, 146, 147, 148, 149, 150, 151, 152, 153, 154, 155],
      "LargestImagePixelValue": [1090, 894, 1058, 1280, 1029, 1034, 1050, 976, 904, 909, 1106, 997, 974, 1214, 1187, 1235, 1125, 1333, 1033, 1117, 898, 932, 902, 983, 957, 977, 956, 911, 1063, 1174, 1008, 928, 1180, 889, 1053, 958, 1204, 925, 1106, 1015, 1156, 958, 1126, 1020, 995, 997, 1234, 1184, 1267, 963, 1006, 902, 1058, 941, 960, 1110, 914, 1019, 1259, 1251, 949, 1115, 985, 968, 1242, 1261, 869, 1037, 920, 864, 1009, 1187, 1048, 980, 1006, 1264, 1328, 905, 1094, 923, 900, 910, 924, 947, 1163, 958, 852, 1078, 1164, 1134, 1096, 1309, 985, 935, 994, 1222, 1002, 961, 1231, 1304, 994, 1022, 1068, 1247, 892, 968, 928, 1122, 972, 1208, 1329, 909, 880, 933, 932, 1319, 961, 1058, 978, 1068, 948, 1119, 1225, 1030, 1167, 902, 954, 1212, 1367, 1267, 1023, 1003, 869, 972, 1157, 1039, 894, 1056, 1252, 1278, 1278, 998, 1019, 1232, 1235, 891, 1210, 1265, 1064, 1351, 929, 967, 1115, 977, 974],
      "WindowCenter": [492.0, 491.0, 493.0, 494.0, 489.0, 490.0, 490.0, 491.0, 492.0, 492.0, 493.0, 492.0, 492.0, 494.0, 493.0, 495.0, 493.0, 493.0, 491.0, 492.0, 490.0, 490.0, 490.0, 491.0, 492.0, 491.0, 492.0, 491.0, 491.0, 493.0, 493.0, 492.0, 492.0, 490.0, 492.0, 492.0, 493.0, 489.0, 490.0, 490.0, 492.0, 489.0, 492.0, 491.0, 491.0, 492.0, 491.0, 490.0, 492.0, 488.0, 489.0, 490.0, 492.0, 492.0, 491.0, 493.0, 492.0, 493.0, 494.0, 493.0, 491.0, 496.0, 492.0, 491.0, 492.0, 491.0, 487.0, 488.0, 487.0, 489.0, 491.0, 493.0, 490.0, 491.0, 490.0, 493.0, 493.0, 489.0, 490.0, 488.0, 490.0, 490.0, 490.0, 491.0, 494.0, 490.0, 490.0, 492.0, 492.0, 493.0, 492.0, 491.0, 489.0, 490.0, 491.0, 494.0, 490.0, 490.0, 492.0, 490.0, 488.0, 489.0, 488.0, 490.0, 486.0, 487.0, 487.0, 489.0, 490.0, 497.0, 499.0, 491.0, 488.0, 489.0, 486.0, 487.0, 487.0, 487.0, 489.0, 491.0, 490.0, 491.0, 491.0, 489.0, 491.0, 491.0, 495.0, 494.0, 491.0, 490.0, 486.0, 486.0, 488.0, 491.0, 492.0, 492.0, 493.0, 496.0, 494.0, 491.0, 493.0, 491.0, 489.0, 491.0, 497.0, 493.0, 495.0, 492.0, 490.0, 491.0, 489.0, 489.0, 490.0, 489.0, 490.0],
      "WindowWidth": [1024.0, 1023.0, 1026.0, 1028.0, 1020.0, 1020.0, 1021.0, 1021.0, 1025.0, 1024.0, 1026.0, 1024.0, 1025.0, 1027.0, 1025.0, 1028.0, 1026.0, 1026.0, 1023.0, 1023.0, 1021.0, 1021.0, 1021.0, 1022.0, 1024.0, 1023.0, 1024.0, 1023.0, 1023.0, 1026.0, 1026.0, 1024.0, 1025.0, 1021.0, 1024.0, 1025.0, 1026.0, 1020.0, 1021.0, 1020.0, 1023.0, 1020.0, 1025.0, 1022.0, 1022.0, 1024.0, 1021.0, 1020.0, 1023.0, 1016.0, 1019.0, 1020.0, 1024.0, 1023.0, 1024.0, 1025.0, 1024.0, 1026.0, 1027.0, 1027.0, 1023.0, 1034.0, 1025.0, 1022.0, 1023.0, 1022.0, 1015.0, 1017.0, 1016.0, 1019.0, 1022.0, 1026.0, 1021.0, 1022.0, 1021.0, 1026.0, 1025.0, 1019.0, 1019.0, 1016.0, 1021.0, 1022.0, 1021.0, 1022.0, 1028.0, 1021.0, 1021.0, 1023.0, 1024.0, 1026.0, 1025.0, 1022.0, 1018.0, 1021.0, 1023.0, 1027.0, 1019.0, 1020.0, 1024.0, 1019.0, 1017.0, 1018.0, 1017.0, 1021.0, 1013.0, 1014.0, 1016.0, 1018.0, 1020.0, 1035.0, 1039.0, 1024.0, 1016.0, 1018.0, 1012.0, 1014.0, 1014.0, 1014.0, 1017.0, 1021.0, 1021.0, 1021.0, 1021.0, 1018.0, 1021.0, 1023.0, 1031.0, 1029.0, 1021.0, 1019.0, 1013.0, 1013.0, 1017.0, 1023.0, 1025.0, 1024.0, 1027.0, 1033.0, 1027.0, 1022.0, 1025.0, 1022.0, 1018.0, 1022.0, 1033.0, 1027.0, 1029.0, 1024.0, 1019.0, 1022.0, 1020.0, 1019.0, 1020.0, 1018.0, 1021.0]
    },
    "slices": {}
  }
}