{
  "AcquisitionMatrixPE": 64,
  "AcquisitionNumber": 1,
  "AcquisitionTime": "17:27:18.197500",
  "BandwidthPerPixelPhaseEncode": 40.064,
  "BaseResolution": 64,
  "BodyPartExamined": "BRAIN",
  "ConsistencyInfo": "N4_VD13D_LATEST_20130810",
  "ConversionSoftware": "dcm2niix",
  "ConversionSoftwareVersion": "v1.0.20191031",
  "DerivedVendorReportedEchoSpacing": 0.000780002,
  "DeviceSerialNumber": "67007",
  "DwellTime": 5.3e-06,
  "EchoTime": 0.03,
  "EchoTrainLength": 31,
  "EffectiveEchoSpacing": 0.000390001,
  "FlipAngle": 75,
  "ImageOrientationPatientDICOM": [0.999601, 0.0201855, 0.01974, -0.0226841, 0.990467, 0.135869],
  "ImageType": [
    "ORIGINAL",
    "PRIMARY",
    "M",
    "ND",
    "NORM",
    "MOSAIC"
],
  "ImagingFrequency": 123.211,
  "InPlanePhaseEncodingDirectionDICOM": "ROW",
  "InstitutionAddress": "Perth_Drive_100_London_Ontario_CA_N6A_5K8",
  "InstitutionName": "Robarts-CFMM",
  "InstitutionalDepartmentName": "CFMM",
  "MRAcquisitionType": "2D",
  "MagneticFieldStrength": 3,
  "Manufacturer": "Siemens",
  "ManufacturersModelName": "Prisma_fit",
  "Modality": "MR",
  "ParallelReductionFactorInPlane": 2,
  "PartialFourier": 1,
  "PatientPosition": "HFS",
  "PercentPhaseFOV": 100,
  "PhaseEncodingDirection": "i",
  "PhaseEncodingSteps": 63,
  "PhaseResolution": 1,
  "PixelBandwidth": 1475,
  "ProcedureStepDescription": "Owen_Naci",
  "ProtocolName": "Resting_State_light_sed",
  "PulseSequenceDetails": "%SiemensSeq%_ep2d_bold",
  "ReceiveCoilActiveElements": "HEA;HEP",
  "ReceiveCoilName": "Head_32",
  "ReconMatrixPE": 64,
  "RefLinesPE": 24,
  "RepetitionTime": 2,
  "SAR": 0.0886871,
  "ScanOptions": "FS",
  "ScanningSequence": "EP",
  "SequenceName": "_epfid2d1_64",
  "SequenceVariant": "SK",
  "SeriesDescription": "Resting_State_light_sed",
  "SeriesNumber": 14,
  "ShimSetting": [5237, -6191, -3843, 344, -21, -75, 14, 13],
  "SliceThickness": 3,
  "SliceTiming": [1.92, 1.86, 1.8, 1.74, 1.68, 1.62, 1.56, 1.5, 1.44, 1.38, 1.32, 1.26, 1.2, 1.14, 1.08, 1.02, 0.96, 0.9, 0.84, 0.78, 0.72, 0.66, 0.6, 0.54, 0.48, 0.42, 0.36, 0.3, 0.24, 0.18, 0.12, 0.06, 0],
  "SoftwareVersions": "syngo_MR_D13D",
  "SpacingBetweenSlices": 3.75,
  "StationName": "AWP67007",
  "TaskName": "restlight",
  "TotalReadoutTime": 0.0245701,
  "TxRefAmp": 259.108,
  "dcmmeta_affine": [
    [-2.9988040924072266, -0.06805238127708435, 0.06303481012582779, 97.19085693359375],
    [-0.06055636331439018, 2.9714012145996094, 0.5109841227531433, -81.46173095703125],
    [0.05922010913491249, -0.40760642290115356, 3.7144882678985596, -28.151582717895508],
    [0.0, 0.0, 0.0, 1.0]
],
  "dcmmeta_reorient_transform": [
    [0.0, -1.0, 0.0, 63.0],
    [1.0, 0.0, 0.0, 0.0],
    [0.0, 0.0, 1.0, 0.0],
    [0.0, 0.0, 0.0, 1.0]
],
  "dcmmeta_shape": [64, 64, 33, 256],
  "dcmmeta_slice_dim": 2,
  "dcmmeta_version": 0.6,
  "global": {
    "const": {
      "AcquisitionMatrix": [0, 64, 64, 0],
      "AngioFlag": "N",
      "BitsAllocated": 16,
      "BitsStored": 12,
      "BodyPartExamined": "BRAIN",
      "Columns": 384,
      "EchoNumbers": 1,
      "EchoTime": 30.0,
      "EchoTrainLength": 31,
      "FlipAngle": 75.0,
      "HighBit": 11,
      "ImageOrientationPatient": [0.9996013597255, 0.02018545486823, 0.01974003664388, -0.0226841272627, 0.99046711033283, 0.13586881069354],
      "ImagePositionPatient": [-561.82382725091, -590.84978765865, -128.52303386543],
      "ImageType": [
        "ORIGINAL",
        "PRIMARY",
        "M",
        "ND",
        "NORM",
        "MOSAIC"
],
      "ImagedNucleus": "1H",
      "ImagingFrequency": 123.211117,
      "InPlanePhaseEncodingDirection": "ROW",
      "MRAcquisitionType": "2D",
      "MagneticFieldStrength": 3.0,
      "Manufacturer": "SIEMENS",
      "ManufacturerModelName": "Prisma_fit",
      "Modality": "MR",
      "NumberOfAverages": 1.0,
      "NumberOfPhaseEncodingSteps": 63,
      "PercentPhaseFieldOfView": 100.0,
      "PercentSampling": 100.0,
      "PerformedProcedureStepStartTime": "161631.696000",
      "PhotometricInterpretation": "MONOCHROME2",
      "PixelBandwidth": 1475.0,
      "PixelRepresentation": 0,
      "PixelSpacing": [3.0, 3.0],
      "ProtocolName": "Resting State_light sed",
      "RepetitionTime": 2000.0,
      "Rows": 384,
      "SAR": 0.08868706335489,
      "SamplesPerPixel": 1,
      "ScanOptions": "FS",
      "ScanningSequence": "EP",
      "SequenceName": "*epfid2d1_64",
      "SequenceVariant": "SK",
      "SeriesDescription": "Resting State_light sed",
      "SeriesNumber": 14,
      "SeriesTime": "172815.288000",
      "SliceLocation": -37.351455526441,
      "SliceThickness": 3.0,
      "SmallestImagePixelValue": 0,
      "SoftwareVersions": "syngo MR D13D",
      "SpacingBetweenSlices": 3.7500000531564,
      "SpecificCharacterSet": "ISO_IR 100",
      "StudyID": "1",
      "StudyTime": "161631.639000",
      "TimeOfLastCalibration": ["123723.000000", "123723.000000"],
      "TransmitCoilName": "Body",
      "VariableFlipAngleFlag": "N",
      "WindowCenterWidthExplanation": "Algo1",
      "dBdt": 0.0},
    "slices": {}
  },
  "time": {
    "samples": {
      "AcquisitionNumber": [1, 2, 3, 4, 5, 6, 7, 8, 9, 10, 11, 12, 13, 14, 15, 16, 17, 18, 19, 20, 21, 22, 23, 24, 25, 26, 27, 28, 29, 30, 31, 32, 33, 34, 35, 36, 37, 38, 39, 40, 41, 42, 43, 44, 45, 46, 47, 48, 49, 50, 51, 52, 53, 54, 55, 56, 57, 58, 59, 60, 61, 62, 63, 64, 65, 66, 67, 68, 69, 70, 71, 72, 73, 74, 75, 76, 77, 78, 79, 80, 81, 82, 83, 84, 85, 86, 87, 88, 89, 90, 91, 92, 93, 94, 95, 96, 97, 98, 99, 100, 101, 102, 103, 104, 105, 106, 107, 108, 109, 110, 111, 112, 113, 114, 115, 116, 117, 118, 119, 120, 121, 122, 123, 124, 125, 126, 127, 128, 129, 130, 131, 132, 133, 134, 135, 136, 137, 138, 139, 140, 141, 142, 143, 144, 145, 146, 147, 148, 149, 150, 151, 152, 153, 154, 155, 156, 157, 158, 159, 160, 161, 162, 163, 164, 165, 166, 167, 168, 169, 170, 171, 172, 173, 174, 175, 176, 177, 178, 179, 180, 181, 182, 183, 184, 185, 186, 187, 188, 189, 190, 191, 192, 193, 194, 195, 196, 197, 198, 199, 200, 201, 202, 203, 204, 205, 206, 207, 208, 209, 210, 211, 212, 213, 214, 215, 216, 217, 218, 219, 220, 221, 222, 223, 224, 225, 226, 227, 228, 229, 230, 231, 232, 233, 234, 235, 236, 237, 238, 239, 240, 241, 242, 243, 244, 245, 246, 247, 248, 249, 250, 251, 252, 253, 254, 255, 256],
      "AcquisitionTime": ["172718.197500", "172720.197500", "172722.197500", "172724.197500", "172726.197500", "172728.197500", "172730.197500", "172732.197500", "172734.197500", "172736.197500", "172738.197500", "172740.197500", "172742.197500", "172744.197500", "172746.197500", "172748.197500", "172750.197500", "172752.197500", "172754.197500", "172756.197500", "172758.197500", "172800.197500", "172802.197500", "172804.197500", "172806.197500", "172808.197500", "172810.197500", "172812.197500", "172814.197500", "172816.197500", "172818.197500", "172820.197500", "172822.197500", "172824.197500", "172826.197500", "172828.197500", "172830.197500", "172832.197500", "172834.197500", "172836.197500", "172838.197500", "172840.197500", "172842.197500", "172844.197500", "172846.197500", "172848.197500", "172850.197500", "172852.197500", "172854.197500", "172856.197500", "172858.197500", "172900.197500", "172902.197500", "172904.197500", "172906.197500", "172908.197500", "172910.197500", "172912.197500", "172914.197500", "172916.197500", "172918.197500", "172920.197500", "172922.197500", "172924.200000", "172926.200000", "172928.200000", "172930.200000", "172932.200000", "172934.200000", "172936.200000", "172938.200000", "172940.200000", "172942.200000", "172944.200000", "172946.200000", "172948.200000", "172950.200000", "172952.200000", "172954.200000", "172956.200000", "172958.200000", "173000.200000", "173002.200000", "173004.200000", "173006.200000", "173008.200000", "173010.200000", "173012.200000", "173014.200000", "173016.200000", "173018.200000", "173020.200000", "173022.200000", "173024.200000", "173026.200000", "173028.200000", "173030.200000", "173032.200000", "173034.200000", "173036.200000", "173038.200000", "173040.200000", "173042.200000", "173044.200000", "173046.200000", "173048.200000", "173050.200000", "173052.200000", "173054.200000", "173056.200000", "173058.200000", "173100.200000", "173102.200000", "173104.200000", "173106.200000", "173108.200000", "173110.200000", "173112.200000", "173114.200000", "173116.200000", "173118.200000", "173120.200000", "173122.200000", "173124.200000", "173126.200000", "173128.200000", "173130.200000", "173132.200000", "173134.200000", "173136.200000", "173138.200000", "173140.200000", "173142.200000", "173144.200000", "173146.200000", "173148.200000", "173150.200000", "173152.200000", "173154.200000", "173156.200000", "173158.200000", "173200.200000", "173202.200000", "173204.200000", "173206.200000", "173208.200000", "173210.200000", "173212.200000", "173214.200000", "173216.200000", "173218.200000", "173220.200000", "173222.200000", "173224.200000", "173226.200000", "173228.200000", "173230.200000", "173232.200000", "173234.200000", "173236.200000", "173238.200000", "173240.200000", "173242.200000", "173244.200000", "173246.200000", "173248.200000", "173250.200000", "173252.200000", "173254.200000", "173256.200000", "173258.200000", "173300.200000", "173302.200000", "173304.200000", "173306.200000", "173308.200000", "173310.200000", "173312.200000", "173314.200000", "173316.200000", "173318.200000", "173320.200000", "173322.200000", "173324.200000", "173326.200000", "173328.200000", "173330.200000", "173332.200000", "173334.200000", "173336.200000", "173338.200000", "173340.200000", "173342.200000", "173344.200000", "173346.200000", "173348.200000", "173350.200000", "173352.200000", "173354.200000", "173356.200000", "173358.200000", "173400.200000", "173402.200000", "173404.200000", "173406.200000", "173408.200000", "173410.200000", "173412.200000", "173414.200000", "173416.200000", "173418.200000", "173420.200000", "173422.200000", "173424.200000", "173426.200000", "173428.200000", "173430.200000", "173432.200000", "173434.200000", "173436.200000", "173438.200000", "173440.200000", "173442.200000", "173444.200000", "173446.200000", "173448.200000", "173450.200000", "173452.200000", "173454.200000", "173456.200000", "173458.200000", "173500.200000", "173502.200000", "173504.200000", "173506.200000", "173508.200000", "173510.200000", "173512.200000", "173514.200000", "173516.200000", "173518.200000", "173520.200000", "173522.200000", "173524.200000", "173526.200000", "173528.200000", "173530.200000", "173532.200000", "173534.200000", "173536.200000", "173538.200000", "173540.200000", "173542.200000", "173544.200000", "173546.200000", "173548.200000"],
      "ContentTime": ["172815.292000", "172815.296000", "172815.298000", "172815.301000", "172815.304000", "172815.307000", "172815.310000", "172815.313000", "172815.315000", "172815.318000", "172815.321000", "172815.324000", "172815.327000", "172815.329000", "172815.332000", "172815.335000", "172815.338000", "172815.341000", "172815.344000", "172815.346000", "172815.361000", "172815.364000", "172815.367000", "172815.370000", "172815.373000", "172815.375000", "172815.378000", "172815.381000", "172815.384000", "172855.287000", "172855.290000", "172855.293000", "172855.295000", "172855.298000", "172855.301000", "172855.303000", "172855.306000", "172855.309000", "172855.311000", "172855.314000", "172855.317000", "172855.319000", "172855.325000", "172855.328000", "172855.331000", "172855.333000", "172855.336000", "172855.339000", "172855.342000", "172935.287000", "172935.291000", "172935.293000", "172935.296000", "172935.299000", "172935.302000", "172935.305000", "172935.308000", "172935.310000", "172935.313000", "172935.316000", "172935.319000", "172935.322000", "172935.324000", "172935.327000", "172935.330000", "172935.333000", "172935.336000", "172935.339000", "172935.342000", "173015.287000", "173015.290000", "173015.293000", "173015.296000", "173015.299000", "173015.301000", "173015.304000", "173015.307000", "173015.310000", "173015.312000", "173015.315000", "173015.318000", "173015.321000", "173015.323000", "173015.326000", "173015.328000", "173015.331000", "173015.334000", "173015.336000", "173015.339000", "173055.287000", "173055.290000", "173055.292000", "173055.295000", "173055.298000", "173055.301000", "173055.303000", "173055.306000", "173055.309000", "173055.311000", "173055.314000", "173055.316000", "173055.319000", "173055.322000", "173055.325000", "173055.327000", "173055.330000", "173055.333000", "173055.335000", "173055.338000", "173135.286000", "173135.289000", "173135.292000", "173135.294000", "173135.297000", "173135.300000", "173135.302000", "173135.305000", "173135.308000", "173135.311000", "173135.314000", "173135.316000", "173135.319000", "173135.322000", "173135.325000", "173135.328000", "173135.331000", "173135.334000", "173135.336000", "173135.339000", "173215.287000", "173215.290000", "173215.293000", "173215.296000", "173215.301000", "173215.304000", "173215.307000", "173215.309000", "173215.312000", "173215.314000", "173215.317000", "173215.320000", "173215.322000", "173215.325000", "173215.328000", "173215.331000", "173215.334000", "173215.337000", "173215.339000", "173215.342000", "173255.287000", "173255.290000", "173255.299000", "173255.301000", "173255.304000", "173255.307000", "173255.309000", "173255.312000", "173255.315000", "173255.318000", "173255.321000", "173255.324000", "173255.326000", "173255.329000", "173255.332000", "173255.335000", "173255.338000", "173255.340000", "173255.343000", "173255.346000", "173335.287000", "173335.290000", "173335.293000", "173335.296000", "173335.298000", "173335.301000", "173335.304000", "173335.306000", "173335.309000", "173335.312000", "173335.315000", "173335.318000", "173335.321000", "173335.323000", "173335.326000", "173335.329000", "173335.332000", "173335.335000", "173335.338000", "173335.341000", "173415.287000", "173415.290000", "173415.293000", "173415.296000", "173415.298000", "173415.301000", "173415.303000", "173415.306000", "173415.309000", "173415.311000", "173415.314000", "173415.316000", "173415.319000", "173415.322000", "173415.324000", "173415.327000", "173415.330000", "173415.333000", "173415.336000", "173415.338000", "173455.287000", "173455.291000", "173455.294000", "173455.296000", "173455.299000", "173455.302000", "173455.305000", "173455.308000", "173455.311000", "173455.313000", "173455.316000", "173455.319000", "173455.322000", "173455.325000", "173455.327000", "173455.330000", "173455.333000", "173455.336000", "173455.339000", "173455.342000", "173535.287000", "173535.290000", "173535.293000", "173535.296000", "173535.298000", "173535.301000", "173535.304000", "173535.307000", "173535.310000", "173535.312000", "173535.315000", "173535.318000", "173535.321000", "173535.324000", "173535.327000", "173535.329000", "173535.332000", "173535.335000", "173535.338000", "173535.341000", "173548.365000", "173548.368000", "173548.371000", "173548.374000", "173548.377000", "173548.379000", "173548.382000"],
      "InstanceCreationTime": ["172815.292000", "172815.296000", "172815.298000", "172815.301000", "172815.304000", "172815.307000", "172815.310000", "172815.313000", "172815.315000", "172815.318000", "172815.321000", "172815.324000", "172815.327000", "172815.329000", "172815.332000", "172815.335000", "172815.338000", "172815.341000", "172815.344000", "172815.346000", "172815.361000", "172815.364000", "172815.367000", "172815.370000", "172815.373000", "172815.375000", "172815.378000", "172815.381000", "172815.384000", "172855.287000", "172855.290000", "172855.293000", "172855.295000", "172855.298000", "172855.301000", "172855.303000", "172855.306000", "172855.309000", "172855.311000", "172855.314000", "172855.317000", "172855.319000", "172855.325000", "172855.328000", "172855.331000", "172855.333000", "172855.336000", "172855.339000", "172855.342000", "172935.287000", "172935.291000", "172935.293000", "172935.296000", "172935.299000", "172935.302000", "172935.305000", "172935.308000", "172935.310000", "172935.313000", "172935.316000", "172935.319000", "172935.322000", "172935.324000", "172935.327000", "172935.330000", "172935.333000", "172935.336000", "172935.339000", "172935.342000", "173015.287000", "173015.290000", "173015.293000", "173015.296000", "173015.299000", "173015.301000", "173015.304000", "173015.307000", "173015.310000", "173015.312000", "173015.315000", "173015.318000", "173015.321000", "173015.323000", "173015.326000", "173015.328000", "173015.331000", "173015.334000", "173015.336000", "173015.339000", "173055.287000", "173055.290000", "173055.292000", "173055.295000", "173055.298000", "173055.301000", "173055.303000", "173055.306000", "173055.309000", "173055.311000", "173055.314000", "173055.316000", "173055.319000", "173055.322000", "173055.325000", "173055.327000", "173055.330000", "173055.333000", "173055.335000", "173055.338000", "173135.286000", "173135.289000", "173135.292000", "173135.294000", "173135.297000", "173135.300000", "173135.302000", "173135.305000", "173135.308000", "173135.311000", "173135.314000", "173135.316000", "173135.319000", "173135.322000", "173135.325000", "173135.328000", "173135.331000", "173135.334000", "173135.336000", "173135.339000", "173215.287000", "173215.290000", "173215.293000", "173215.296000", "173215.301000", "173215.304000", "173215.307000", "173215.309000", "173215.312000", "173215.314000", "173215.317000", "173215.320000", "173215.322000", "173215.325000", "173215.328000", "173215.331000", "173215.334000", "173215.337000", "173215.339000", "173215.342000", "173255.287000", "173255.290000", "173255.299000", "173255.301000", "173255.304000", "173255.307000", "173255.309000", "173255.312000", "173255.315000", "173255.318000", "173255.321000", "173255.324000", "173255.326000", "173255.329000", "173255.332000", "173255.335000", "173255.338000", "173255.340000", "173255.343000", "173255.346000", "173335.287000", "173335.290000", "173335.293000", "173335.296000", "173335.298000", "173335.301000", "173335.304000", "173335.306000", "173335.309000", "173335.312000", "173335.315000", "173335.318000", "173335.321000", "173335.323000", "173335.326000", "173335.329000", "173335.332000", "173335.335000", "173335.338000", "173335.341000", "173415.287000", "173415.290000", "173415.293000", "173415.296000", "173415.298000", "173415.301000", "173415.303000", "173415.306000", "173415.309000", "173415.311000", "173415.314000", "173415.316000", "173415.319000", "173415.322000", "173415.324000", "173415.327000", "173415.330000", "173415.333000", "173415.336000", "173415.338000", "173455.287000", "173455.291000", "173455.294000", "173455.296000", "173455.299000", "173455.302000", "173455.305000", "173455.308000", "173455.311000", "173455.313000", "173455.316000", "173455.319000", "173455.322000", "173455.325000", "173455.327000", "173455.330000", "173455.333000", "173455.336000", "173455.339000", "173455.342000", "173535.287000", "173535.290000", "173535.293000", "173535.296000", "173535.298000", "173535.301000", "173535.304000", "173535.307000", "173535.310000", "173535.312000", "173535.315000", "173535.318000", "173535.321000", "173535.324000", "173535.327000", "173535.329000", "173535.332000", "173535.335000", "173535.338000", "173535.341000", "173548.365000", "173548.368000", "173548.371000", "173548.374000", "173548.377000", "173548.379000", "173548.382000"],
      "InstanceNumber": [1, 2, 3, 4, 5, 6, 7, 8, 9, 10, 11, 12, 13, 14, 15, 16, 17, 18, 19, 20, 21, 22, 23, 24, 25, 26, 27, 28, 29, 30, 31, 32, 33, 34, 35, 36, 37, 38, 39, 40, 41, 42, 43, 44, 45, 46, 47, 48, 49, 50, 51, 52, 53, 54, 55, 56, 57, 58, 59, 60, 61, 62, 63, 64, 65, 66, 67, 68, 69, 70, 71, 72, 73, 74, 75, 76, 77, 78, 79, 80, 81, 82, 83, 84, 85, 86, 87, 88, 89, 90, 91, 92, 93, 94, 95, 96, 97, 98, 99, 100, 101, 102, 103, 104, 105, 106, 107, 108, 109, 110, 111, 112, 113, 114, 115, 116, 117, 118, 119, 120, 121, 122, 123, 124, 125, 126, 127, 128, 129, 130, 131, 132, 133, 134, 135, 136, 137, 138, 139, 140, 141, 142, 143, 144, 145, 146, 147, 148, 149, 150, 151, 152, 153, 154, 155, 156, 157, 158, 159, 160, 161, 162, 163, 164, 165, 166, 167, 168, 169, 170, 171, 172, 173, 174, 175, 176, 177, 178, 179, 180, 181, 182, 183, 184, 185, 186, 187, 188, 189, 190, 191, 192, 193, 194, 195, 196, 197, 198, 199, 200, 201, 202, 203, 204, 205, 206, 207, 208, 209, 210, 211, 212, 213, 214, 215, 216, 217, 218, 219, 220, 221, 222, 223, 224, 225, 226, 227, 228, 229, 230, 231, 232, 233, 234, 235, 236, 237, 238, 239, 240, 241, 242, 243, 244, 245, 246, 247, 248, 249, 250, 251, 252, 253, 254, 255, 256],
      "LargestImagePixelValue": [840, 814, 841, 999, 961, 806, 802, 828, 830, 859, 809, 936, 816, 810, 822, 815, 835, 823, 801, 1018, 806, 815, 828, 1013, 841, 812, 814, 822, 813, 810, 826, 790, 884, 856, 817, 897, 812, 822, 825, 829, 812, 837, 853, 821, 877, 814, 837, 810, 831, 824, 978, 879, 807, 831, 810, 897, 806, 876, 807, 821, 813, 816, 941, 826, 861, 817, 869, 816, 809, 833, 819, 921, 792, 1015, 830, 977, 818, 953, 821, 929, 817, 878, 819, 850, 798, 789, 840, 800, 865, 810, 943, 858, 911, 872, 810, 850, 809, 889, 800, 820, 783, 909, 868, 834, 819, 830, 863, 823, 811, 823, 815, 892, 846, 805, 831, 785, 838, 806, 814, 937, 852, 838, 823, 797, 888, 819, 949, 858, 810, 790, 1010, 883, 947, 813, 956, 846, 815, 825, 901, 827, 851, 804, 877, 826, 904, 822, 842, 801, 794, 841, 951, 853, 980, 793, 778, 804, 925, 835, 810, 791, 803, 823, 817, 820, 795, 821, 810, 784, 870, 833, 970, 1127, 884, 791, 822, 948, 809, 795, 821, 797, 826, 812, 812, 829, 803, 814, 809, 814, 819, 811, 816, 888, 842, 818, 821, 903, 831, 806, 815, 1002, 1011, 902, 823, 824, 826, 807, 817, 809, 807, 842, 810, 817, 808, 821, 802, 830, 824, 894, 815, 867, 813, 847, 814, 904, 922, 903, 896, 808, 806, 953, 880, 814, 814, 798, 856, 813, 814, 822, 800, 833, 804, 836, 807, 803, 821, 819, 826, 818, 818, 858, 818, 981, 822, 903, 821, 818],
      "WindowCenter": [446.0, 448.0, 445.0, 445.0, 442.0, 438.0, 439.0, 441.0, 444.0, 445.0, 443.0, 443.0, 442.0, 442.0, 443.0, 443.0, 443.0, 444.0, 445.0, 453.0, 451.0, 452.0, 447.0, 447.0, 445.0, 444.0, 444.0, 444.0, 445.0, 446.0, 447.0, 446.0, 447.0, 447.0, 448.0, 450.0, 448.0, 448.0, 443.0, 445.0, 447.0, 448.0, 448.0, 448.0, 449.0, 448.0, 448.0, 447.0, 448.0, 448.0, 449.0, 447.0, 446.0, 446.0, 446.0, 448.0, 447.0, 447.0, 447.0, 447.0, 447.0, 448.0, 449.0, 448.0, 449.0, 448.0, 449.0, 448.0, 448.0, 448.0, 448.0, 449.0, 447.0, 450.0, 447.0, 448.0, 446.0, 448.0, 446.0, 448.0, 446.0, 447.0, 446.0, 447.0, 446.0, 446.0, 447.0, 446.0, 447.0, 447.0, 449.0, 447.0, 447.0, 447.0, 446.0, 446.0, 446.0, 447.0, 446.0, 447.0, 448.0, 449.0, 448.0, 447.0, 447.0, 447.0, 447.0, 447.0, 446.0, 446.0, 446.0, 447.0, 446.0, 446.0, 448.0, 447.0, 448.0, 448.0, 448.0, 449.0, 447.0, 446.0, 446.0, 446.0, 447.0, 447.0, 449.0, 450.0, 449.0, 452.0, 451.0, 447.0, 446.0, 443.0, 446.0, 445.0, 446.0, 446.0, 448.0, 446.0, 447.0, 447.0, 448.0, 447.0, 448.0, 447.0, 447.0, 446.0, 447.0, 447.0, 448.0, 451.0, 455.0, 452.0, 448.0, 447.0, 446.0, 445.0, 444.0, 444.0, 445.0, 446.0, 447.0, 447.0, 446.0, 446.0, 446.0, 447.0, 448.0, 446.0, 448.0, 451.0, 453.0, 452.0, 451.0, 448.0, 444.0, 443.0, 445.0, 444.0, 445.0, 448.0, 448.0, 449.0, 448.0, 448.0, 447.0, 448.0, 448.0, 449.0, 449.0, 455.0, 450.0, 448.0, 448.0, 450.0, 451.0, 452.0, 452.0, 452.0, 449.0, 445.0, 443.0, 444.0, 445.0, 445.0, 445.0, 446.0, 445.0, 446.0, 447.0, 446.0, 446.0, 446.0, 446.0, 447.0, 448.0, 450.0, 449.0, 450.0, 448.0, 449.0, 447.0, 448.0, 449.0, 452.0, 453.0, 452.0, 451.0, 450.0, 447.0, 444.0, 444.0, 445.0, 447.0, 449.0, 448.0, 448.0, 447.0, 448.0, 447.0, 447.0, 446.0, 446.0, 447.0, 447.0, 448.0, 449.0, 448.0, 449.0, 448.0, 450.0, 448.0, 448.0, 447.0, 447.0],
      "WindowWidth": [935.0, 938.0, 933.0, 931.0, 926.0, 920.0, 922.0, 926.0, 930.0, 931.0, 928.0, 929.0, 927.0, 926.0, 928.0, 929.0, 929.0, 931.0, 933.0, 949.0, 944.0, 945.0, 936.0, 935.0, 932.0, 930.0, 930.0, 931.0, 932.0, 934.0, 936.0, 935.0, 937.0, 936.0, 939.0, 942.0, 940.0, 938.0, 928.0, 932.0, 935.0, 938.0, 938.0, 937.0, 940.0, 938.0, 938.0, 937.0, 938.0, 937.0, 940.0, 936.0, 935.0, 934.0, 935.0, 937.0, 936.0, 936.0, 935.0, 936.0, 937.0, 938.0, 940.0, 938.0, 939.0, 938.0, 940.0, 937.0, 938.0, 938.0, 937.0, 939.0, 937.0, 940.0, 936.0, 937.0, 934.0, 937.0, 935.0, 938.0, 934.0, 936.0, 935.0, 936.0, 935.0, 935.0, 935.0, 935.0, 937.0, 937.0, 939.0, 936.0, 936.0, 935.0, 935.0, 935.0, 934.0, 936.0, 934.0, 936.0, 938.0, 940.0, 939.0, 936.0, 935.0, 936.0, 937.0, 935.0, 934.0, 934.0, 934.0, 936.0, 935.0, 935.0, 937.0, 937.0, 938.0, 937.0, 938.0, 939.0, 936.0, 934.0, 935.0, 935.0, 935.0, 936.0, 940.0, 942.0, 941.0, 945.0, 942.0, 936.0, 934.0, 929.0, 934.0, 932.0, 934.0, 935.0, 938.0, 935.0, 937.0, 936.0, 938.0, 936.0, 937.0, 936.0, 936.0, 935.0, 936.0, 937.0, 938.0, 943.0, 953.0, 946.0, 939.0, 936.0, 934.0, 933.0, 930.0, 931.0, 932.0, 935.0, 936.0, 936.0, 935.0, 934.0, 935.0, 935.0, 937.0, 935.0, 938.0, 943.0, 949.0, 945.0, 944.0, 937.0, 931.0, 929.0, 931.0, 931.0, 933.0, 938.0, 938.0, 941.0, 938.0, 939.0, 937.0, 938.0, 939.0, 939.0, 940.0, 953.0, 942.0, 937.0, 937.0, 941.0, 943.0, 947.0, 946.0, 945.0, 940.0, 932.0, 928.0, 931.0, 932.0, 932.0, 933.0, 934.0, 934.0, 935.0, 936.0, 935.0, 935.0, 934.0, 935.0, 936.0, 938.0, 941.0, 940.0, 941.0, 938.0, 939.0, 937.0, 938.0, 939.0, 947.0, 949.0, 945.0, 944.0, 941.0, 936.0, 931.0, 931.0, 932.0, 936.0, 939.0, 938.0, 938.0, 936.0, 938.0, 937.0, 936.0, 935.0, 935.0, 937.0, 936.0, 938.0, 939.0, 939.0, 940.0, 938.0, 942.0, 938.0, 938.0, 936.0, 937.0]
    },
    "slices": {}
  }
}