{
  "AcquisitionMatrixPE": 64,
  "AcquisitionNumber": 1,
  "AcquisitionTime": "17:59:42.185000",
  "BandwidthPerPixelPhaseEncode": 40.064,
  "BaseResolution": 64,
  "BodyPartExamined": "BRAIN",
  "ConsistencyInfo": "N4_VD13D_LATEST_20130810",
  "ConversionSoftware": "dcm2niix",
  "ConversionSoftwareVersion": "v1.0.20191031",
  "DerivedVendorReportedEchoSpacing": 0.000780002,
  "DeviceSerialNumber": "67007",
  "DwellTime": 5.3e-06,
  "EchoTime": 0.03,
  "EchoTrainLength": 31,
  "EffectiveEchoSpacing": 0.000390001,
  "FlipAngle": 75,
  "ImageOrientationPatientDICOM": [0.999601, 0.0201855, 0.01974, -0.0226841, 0.990467, 0.135869],
  "ImageType": [
    "ORIGINAL",
    "PRIMARY",
    "M",
    "ND",
    "NORM",
    "MOSAIC"
],
  "ImagingFrequency": 123.211,
  "InPlanePhaseEncodingDirectionDICOM": "ROW",
  "InstitutionAddress": "Perth_Drive_100_London_Ontario_CA_N6A_5K8",
  "InstitutionName": "Robarts-CFMM",
  "InstitutionalDepartmentName": "CFMM",
  "MRAcquisitionType": "2D",
  "MagneticFieldStrength": 3,
  "Manufacturer": "Siemens",
  "ManufacturersModelName": "Prisma_fit",
  "Modality": "MR",
  "ParallelReductionFactorInPlane": 2,
  "PartialFourier": 1,
  "PatientPosition": "HFS",
  "PercentPhaseFOV": 100,
  "PhaseEncodingDirection": "i",
  "PhaseEncodingSteps": 63,
  "PhaseResolution": 1,
  "PixelBandwidth": 1475,
  "ProcedureStepDescription": "Owen_Naci",
  "ProtocolName": "Resting_State_deep_sed",
  "PulseSequenceDetails": "%SiemensSeq%_ep2d_bold",
  "ReceiveCoilActiveElements": "HEA;HEP",
  "ReceiveCoilName": "Head_32",
  "ReconMatrixPE": 64,
  "RefLinesPE": 24,
  "RepetitionTime": 2,
  "SAR": 0.0886871,
  "ScanOptions": "FS",
  "ScanningSequence": "EP",
  "SequenceName": "_epfid2d1_64",
  "SequenceVariant": "SK",
  "SeriesDescription": "Resting_State_deep_sed",
  "SeriesNumber": 20,
  "ShimSetting": [5237, -6191, -3843, 344, -21, -75, 14, 13],
  "SliceThickness": 3,
  "SliceTiming": [1.92, 1.86, 1.8, 1.74, 1.68, 1.62, 1.56, 1.5, 1.44, 1.38, 1.32, 1.26, 1.2, 1.14, 1.08, 1.02, 0.96, 0.9, 0.84, 0.78, 0.72, 0.66, 0.6, 0.54, 0.48, 0.42, 0.36, 0.3, 0.24, 0.18, 0.12, 0.06, 0],
  "SoftwareVersions": "syngo_MR_D13D",
  "SpacingBetweenSlices": 3.75,
  "StationName": "AWP67007",
  "TaskName": "restdeep",
  "TotalReadoutTime": 0.0245701,
  "TxRefAmp": 259.108,
  "dcmmeta_affine": [
    [-2.9988040924072266, -0.06805238127708435, 0.06303481012582779, 97.19085693359375],
    [-0.06055636331439018, 2.9714012145996094, 0.5109841227531433, -81.46173095703125],
    [0.05922010913491249, -0.40760642290115356, 3.7144882678985596, -28.151582717895508],
    [0.0, 0.0, 0.0, 1.0]
],
  "dcmmeta_reorient_transform": [
    [0.0, -1.0, 0.0, 63.0],
    [1.0, 0.0, 0.0, 0.0],
    [0.0, 0.0, 1.0, 0.0],
    [0.0, 0.0, 0.0, 1.0]
],
  "dcmmeta_shape": [64, 64, 33, 256],
  "dcmmeta_slice_dim": 2,
  "dcmmeta_version": 0.6,
  "global": {
    "const": {
      "AcquisitionMatrix": [0, 64, 64, 0],
      "AngioFlag": "N",
      "BitsAllocated": 16,
      "BitsStored": 12,
      "BodyPartExamined": "BRAIN",
      "Columns": 384,
      "EchoNumbers": 1,
      "EchoTime": 30.0,
      "EchoTrainLength": 31,
      "FlipAngle": 75.0,
      "HighBit": 11,
      "ImageOrientationPatient": [0.9996013597255, 0.02018545486823, 0.01974003664388, -0.0226841272627, 0.99046711033283, 0.13586881069354],
      "ImagePositionPatient": [-561.82382725091, -590.84978765865, -128.52303386543],
      "ImageType": [
        "ORIGINAL",
        "PRIMARY",
        "M",
        "ND",
        "NORM",
        "MOSAIC"
],
      "ImagedNucleus": "1H",
      "ImagingFrequency": 123.211112,
      "InPlanePhaseEncodingDirection": "ROW",
      "MRAcquisitionType": "2D",
      "MagneticFieldStrength": 3.0,
      "Manufacturer": "SIEMENS",
      "ManufacturerModelName": "Prisma_fit",
      "Modality": "MR",
      "NumberOfAverages": 1.0,
      "NumberOfPhaseEncodingSteps": 63,
      "PercentPhaseFieldOfView": 100.0,
      "PercentSampling": 100.0,
      "PerformedProcedureStepStartTime": "161631.696000",
      "PhotometricInterpretation": "MONOCHROME2",
      "PixelBandwidth": 1475.0,
      "PixelRepresentation": 0,
      "PixelSpacing": [3.0, 3.0],
      "ProtocolName": "Resting State_deep_sed",
      "RepetitionTime": 2000.0,
      "Rows": 384,
      "SAR": 0.08868706335489,
      "SamplesPerPixel": 1,
      "ScanOptions": "FS",
      "ScanningSequence": "EP",
      "SequenceName": "*epfid2d1_64",
      "SequenceVariant": "SK",
      "SeriesDescription": "Resting State_deep_sed",
      "SeriesNumber": 20,
      "SeriesTime": "180035.289000",
      "SliceLocation": -37.351455526441,
      "SliceThickness": 3.0,
      "SmallestImagePixelValue": 0,
      "SoftwareVersions": "syngo MR D13D",
      "SpacingBetweenSlices": 3.7500000531564,
      "SpecificCharacterSet": "ISO_IR 100",
      "StudyID": "1",
      "StudyTime": "161631.639000",
      "TimeOfLastCalibration": ["123723.000000", "123723.000000"],
      "TransmitCoilName": "Body",
      "VariableFlipAngleFlag": "N",
      "WindowCenterWidthExplanation": "Algo1",
      "dBdt": 0.0},
    "slices": {}
  },
  "time": {
    "samples": {
      "AcquisitionNumber": [1, 2, 3, 4, 5, 6, 7, 8, 9, 10, 11, 12, 13, 14, 15, 16, 17, 18, 19, 20, 21, 22, 23, 24, 25, 26, 27, 28, 29, 30, 31, 32, 33, 34, 35, 36, 37, 38, 39, 40, 41, 42, 43, 44, 45, 46, 47, 48, 49, 50, 51, 52, 53, 54, 55, 56, 57, 58, 59, 60, 61, 62, 63, 64, 65, 66, 67, 68, 69, 70, 71, 72, 73, 74, 75, 76, 77, 78, 79, 80, 81, 82, 83, 84, 85, 86, 87, 88, 89, 90, 91, 92, 93, 94, 95, 96, 97, 98, 99, 100, 101, 102, 103, 104, 105, 106, 107, 108, 109, 110, 111, 112, 113, 114, 115, 116, 117, 118, 119, 120, 121, 122, 123, 124, 125, 126, 127, 128, 129, 130, 131, 132, 133, 134, 135, 136, 137, 138, 139, 140, 141, 142, 143, 144, 145, 146, 147, 148, 149, 150, 151, 152, 153, 154, 155, 156, 157, 158, 159, 160, 161, 162, 163, 164, 165, 166, 167, 168, 169, 170, 171, 172, 173, 174, 175, 176, 177, 178, 179, 180, 181, 182, 183, 184, 185, 186, 187, 188, 189, 190, 191, 192, 193, 194, 195, 196, 197, 198, 199, 200, 201, 202, 203, 204, 205, 206, 207, 208, 209, 210, 211, 212, 213, 214, 215, 216, 217, 218, 219, 220, 221, 222, 223, 224, 225, 226, 227, 228, 229, 230, 231, 232, 233, 234, 235, 236, 237, 238, 239, 240, 241, 242, 243, 244, 245, 246, 247, 248, 249, 250, 251, 252, 253, 254, 255, 256],
      "AcquisitionTime": ["175942.185000", "175944.185000", "175946.185000", "175948.185000", "175950.185000", "175952.185000", "175954.185000", "175956.185000", "175958.185000", "180000.185000", "180002.185000", "180004.185000", "180006.185000", "180008.185000", "180010.185000", "180012.185000", "180014.185000", "180016.185000", "180018.185000", "180020.185000", "180022.185000", "180024.185000", "180026.185000", "180028.185000", "180030.185000", "180032.185000", "180034.185000", "180036.185000", "180038.185000", "180040.185000", "180042.185000", "180044.185000", "180046.185000", "180048.185000", "180050.185000", "180052.185000", "180054.185000", "180056.185000", "180058.185000", "180100.185000", "180102.185000", "180104.185000", "180106.185000", "180108.185000", "180110.185000", "180112.185000", "180114.185000", "180116.185000", "180118.185000", "180120.185000", "180122.185000", "180124.185000", "180126.185000", "180128.185000", "180130.185000", "180132.185000", "180134.185000", "180136.185000", "180138.185000", "180140.185000", "180142.185000", "180144.185000", "180146.185000", "180148.185000", "180150.185000", "180152.185000", "180154.185000", "180156.185000", "180158.187500", "180200.187500", "180202.187500", "180204.187500", "180206.187500", "180208.187500", "180210.187500", "180212.187500", "180214.187500", "180216.187500", "180218.187500", "180220.187500", "180222.187500", "180224.187500", "180226.187500", "180228.187500", "180230.187500", "180232.187500", "180234.187500", "180236.187500", "180238.187500", "180240.187500", "180242.187500", "180244.187500", "180246.187500", "180248.187500", "180250.187500", "180252.187500", "180254.187500", "180256.187500", "180258.187500", "180300.187500", "180302.187500", "180304.187500", "180306.187500", "180308.187500", "180310.187500", "180312.187500", "180314.187500", "180316.187500", "180318.187500", "180320.187500", "180322.187500", "180324.187500", "180326.187500", "180328.187500", "180330.187500", "180332.187500", "180334.187500", "180336.187500", "180338.187500", "180340.187500", "180342.187500", "180344.187500", "180346.187500", "180348.187500", "180350.187500", "180352.187500", "180354.187500", "180356.187500", "180358.187500", "180400.187500", "180402.187500", "180404.187500", "180406.187500", "180408.187500", "180410.187500", "180412.187500", "180414.187500", "180416.187500", "180418.187500", "180420.187500", "180422.187500", "180424.187500", "180426.187500", "180428.187500", "180430.187500", "180432.187500", "180434.187500", "180436.187500", "180438.187500", "180440.187500", "180442.187500", "180444.187500", "180446.187500", "180448.187500", "180450.187500", "180452.187500", "180454.187500", "180456.187500", "180458.187500", "180500.187500", "180502.187500", "180504.187500", "180506.187500", "180508.187500", "180510.187500", "180512.187500", "180514.187500", "180516.187500", "180518.187500", "180520.187500", "180522.187500", "180524.187500", "180526.187500", "180528.187500", "180530.187500", "180532.187500", "180534.187500", "180536.187500", "180538.187500", "180540.187500", "180542.187500", "180544.187500", "180546.187500", "180548.187500", "180550.187500", "180552.187500", "180554.187500", "180556.187500", "180558.187500", "180600.187500", "180602.187500", "180604.187500", "180606.187500", "180608.187500", "180610.187500", "180612.187500", "180614.187500", "180616.187500", "180618.187500", "180620.187500", "180622.187500", "180624.187500", "180626.187500", "180628.187500", "180630.187500", "180632.187500", "180634.187500", "180636.187500", "180638.187500", "180640.187500", "180642.187500", "180644.187500", "180646.187500", "180648.187500", "180650.187500", "180652.187500", "180654.187500", "180656.187500", "180658.187500", "180700.187500", "180702.187500", "180704.187500", "180706.187500", "180708.187500", "180710.187500", "180712.187500", "180714.187500", "180716.187500", "180718.187500", "180720.187500", "180722.187500", "180724.187500", "180726.187500", "180728.187500", "180730.187500", "180732.187500", "180734.187500", "180736.187500", "180738.187500", "180740.187500", "180742.187500", "180744.187500", "180746.187500", "180748.187500", "180750.187500", "180752.187500", "180754.187500", "180756.187500", "180758.187500", "180800.187500", "180802.187500", "180804.187500", "180806.187500", "180808.187500", "180810.187500", "180812.187500"],
      "ContentTime": ["180035.293000", "180035.297000", "180035.300000", "180035.302000", "180035.305000", "180035.307000", "180035.310000", "180035.313000", "180035.315000", "180035.318000", "180035.320000", "180035.323000", "180035.326000", "180035.328000", "180035.331000", "180035.334000", "180035.337000", "180035.339000", "180035.342000", "180035.345000", "180035.348000", "180035.351000", "180035.353000", "180035.356000", "180035.358000", "180035.361000", "180035.364000", "180115.287000", "180115.290000", "180115.293000", "180115.295000", "180115.298000", "180115.301000", "180115.304000", "180115.307000", "180115.310000", "180115.312000", "180115.315000", "180115.318000", "180115.321000", "180115.324000", "180115.326000", "180115.329000", "180115.331000", "180115.334000", "180115.337000", "180115.339000", "180155.287000", "180155.290000", "180155.293000", "180155.296000", "180155.299000", "180155.302000", "180155.304000", "180155.307000", "180155.310000", "180155.313000", "180155.316000", "180155.319000", "180155.322000", "180155.324000", "180155.327000", "180155.330000", "180155.332000", "180155.335000", "180155.338000", "180155.340000", "180235.286000", "180235.290000", "180235.292000", "180235.295000", "180235.297000", "180235.300000", "180235.303000", "180235.305000", "180235.308000", "180235.310000", "180235.313000", "180235.316000", "180235.318000", "180235.321000", "180235.324000", "180235.327000", "180235.329000", "180235.332000", "180235.335000", "180235.338000", "180315.287000", "180315.290000", "180315.292000", "180315.295000", "180315.298000", "180315.300000", "180315.303000", "180315.306000", "180315.308000", "180315.311000", "180315.313000", "180315.316000", "180315.318000", "180315.321000", "180315.324000", "180315.326000", "180315.329000", "180315.332000", "180315.334000", "180315.337000", "180355.286000", "180355.289000", "180355.292000", "180355.294000", "180355.297000", "180355.299000", "180355.302000", "180355.305000", "180355.307000", "180355.310000", "180355.312000", "180355.315000", "180355.318000", "180355.321000", "180355.323000", "180355.326000", "180355.328000", "180355.331000", "180355.334000", "180355.336000", "180435.287000", "180435.290000", "180435.292000", "180435.295000", "180435.298000", "180435.300000", "180435.303000", "180435.306000", "180435.308000", "180435.311000", "180435.314000", "180435.317000", "180435.319000", "180435.322000", "180435.325000", "180435.328000", "180435.331000", "180435.334000", "180435.336000", "180435.339000", "180515.287000", "180515.290000", "180515.293000", "180515.295000", "180515.298000", "180515.301000", "180515.303000", "180515.306000", "180515.308000", "180515.311000", "180515.314000", "180515.316000", "180515.319000", "180515.322000", "180515.325000", "180515.327000", "180515.330000", "180515.333000", "180515.336000", "180515.339000", "180555.287000", "180555.290000", "180555.293000", "180555.295000", "180555.298000", "180555.301000", "180555.303000", "180555.306000", "180555.308000", "180555.311000", "180555.314000", "180555.316000", "180555.319000", "180555.322000", "180555.324000", "180555.327000", "180555.330000", "180555.332000", "180555.335000", "180555.338000", "180615.286000", "180615.289000", "180615.292000", "180615.295000", "180615.297000", "180615.300000", "180615.303000", "180615.306000", "180615.308000", "180615.311000", "180655.286000", "180655.289000", "180655.292000", "180655.295000", "180655.298000", "180655.301000", "180655.304000", "180655.307000", "180655.310000", "180655.312000", "180655.315000", "180655.318000", "180655.320000", "180655.323000", "180655.326000", "180655.329000", "180655.332000", "180655.334000", "180655.337000", "180655.340000", "180735.286000", "180735.289000", "180735.292000", "180735.295000", "180735.298000", "180735.301000", "180735.304000", "180735.307000", "180735.310000", "180735.313000", "180735.316000", "180735.319000", "180735.322000", "180735.325000", "180735.328000", "180735.330000", "180735.333000", "180735.336000", "180735.340000", "180735.343000", "180812.632000", "180812.635000", "180812.638000", "180812.641000", "180812.644000", "180812.647000", "180812.650000", "180812.653000", "180812.655000", "180812.658000", "180812.661000", "180812.664000", "180812.670000", "180812.675000", "180812.680000", "180812.683000", "180812.686000", "180812.689000", "180812.692000"],
      "InstanceCreationTime": ["180035.293000", "180035.297000", "180035.300000", "180035.302000", "180035.305000", "180035.307000", "180035.310000", "180035.313000", "180035.315000", "180035.318000", "180035.320000", "180035.323000", "180035.326000", "180035.328000", "180035.331000", "180035.334000", "180035.337000", "180035.339000", "180035.342000", "180035.345000", "180035.348000", "180035.351000", "180035.353000", "180035.356000", "180035.358000", "180035.361000", "180035.364000", "180115.287000", "180115.290000", "180115.293000", "180115.295000", "180115.298000", "180115.301000", "180115.304000", "180115.307000", "180115.310000", "180115.312000", "180115.315000", "180115.318000", "180115.321000", "180115.324000", "180115.326000", "180115.329000", "180115.331000", "180115.334000", "180115.337000", "180115.339000", "180155.287000", "180155.290000", "180155.293000", "180155.296000", "180155.299000", "180155.302000", "180155.304000", "180155.307000", "180155.310000", "180155.313000", "180155.316000", "180155.319000", "180155.322000", "180155.324000", "180155.327000", "180155.330000", "180155.332000", "180155.335000", "180155.338000", "180155.340000", "180235.286000", "180235.290000", "180235.292000", "180235.295000", "180235.297000", "180235.300000", "180235.303000", "180235.305000", "180235.308000", "180235.310000", "180235.313000", "180235.316000", "180235.318000", "180235.321000", "180235.324000", "180235.327000", "180235.329000", "180235.332000", "180235.335000", "180235.338000", "180315.287000", "180315.290000", "180315.292000", "180315.295000", "180315.298000", "180315.300000", "180315.303000", "180315.306000", "180315.308000", "180315.311000", "180315.313000", "180315.316000", "180315.318000", "180315.321000", "180315.324000", "180315.326000", "180315.329000", "180315.332000", "180315.334000", "180315.337000", "180355.286000", "180355.289000", "180355.292000", "180355.294000", "180355.297000", "180355.299000", "180355.302000", "180355.305000", "180355.307000", "180355.310000", "180355.312000", "180355.315000", "180355.318000", "180355.321000", "180355.323000", "180355.326000", "180355.328000", "180355.331000", "180355.334000", "180355.336000", "180435.287000", "180435.290000", "180435.292000", "180435.295000", "180435.298000", "180435.300000", "180435.303000", "180435.306000", "180435.308000", "180435.311000", "180435.314000", "180435.317000", "180435.319000", "180435.322000", "180435.325000", "180435.328000", "180435.331000", "180435.334000", "180435.336000", "180435.339000", "180515.287000", "180515.290000", "180515.293000", "180515.295000", "180515.298000", "180515.301000", "180515.303000", "180515.306000", "180515.308000", "180515.311000", "180515.314000", "180515.316000", "180515.319000", "180515.322000", "180515.325000", "180515.327000", "180515.330000", "180515.333000", "180515.336000", "180515.339000", "180555.287000", "180555.290000", "180555.293000", "180555.295000", "180555.298000", "180555.301000", "180555.303000", "180555.306000", "180555.308000", "180555.311000", "180555.314000", "180555.316000", "180555.319000", "180555.322000", "180555.324000", "180555.327000", "180555.330000", "180555.332000", "180555.335000", "180555.338000", "180615.286000", "180615.289000", "180615.292000", "180615.295000", "180615.297000", "180615.300000", "180615.303000", "180615.306000", "180615.308000", "180615.311000", "180655.286000", "180655.289000", "180655.292000", "180655.295000", "180655.298000", "180655.301000", "180655.304000", "180655.307000", "180655.310000", "180655.312000", "180655.315000", "180655.318000", "180655.320000", "180655.323000", "180655.326000", "180655.329000", "180655.332000", "180655.334000", "180655.337000", "180655.340000", "180735.286000", "180735.289000", "180735.292000", "180735.295000", "180735.298000", "180735.301000", "180735.304000", "180735.307000", "180735.310000", "180735.313000", "180735.316000", "180735.319000", "180735.322000", "180735.325000", "180735.328000", "180735.330000", "180735.333000", "180735.336000", "180735.340000", "180735.343000", "180812.632000", "180812.635000", "180812.638000", "180812.641000", "180812.644000", "180812.647000", "180812.650000", "180812.653000", "180812.655000", "180812.658000", "180812.661000", "180812.664000", "180812.670000", "180812.675000", "180812.680000", "180812.683000", "180812.686000", "180812.689000", "180812.692000"],
      "InstanceNumber": [1, 2, 3, 4, 5, 6, 7, 8, 9, 10, 11, 12, 13, 14, 15, 16, 17, 18, 19, 20, 21, 22, 23, 24, 25, 26, 27, 28, 29, 30, 31, 32, 33, 34, 35, 36, 37, 38, 39, 40, 41, 42, 43, 44, 45, 46, 47, 48, 49, 50, 51, 52, 53, 54, 55, 56, 57, 58, 59, 60, 61, 62, 63, 64, 65, 66, 67, 68, 69, 70, 71, 72, 73, 74, 75, 76, 77, 78, 79, 80, 81, 82, 83, 84, 85, 86, 87, 88, 89, 90, 91, 92, 93, 94, 95, 96, 97, 98, 99, 100, 101, 102, 103, 104, 105, 106, 107, 108, 109, 110, 111, 112, 113, 114, 115, 116, 117, 118, 119, 120, 121, 122, 123, 124, 125, 126, 127, 128, 129, 130, 131, 132, 133, 134, 135, 136, 137, 138, 139, 140, 141, 142, 143, 144, 145, 146, 147, 148, 149, 150, 151, 152, 153, 154, 155, 156, 157, 158, 159, 160, 161, 162, 163, 164, 165, 166, 167, 168, 169, 170, 171, 172, 173, 174, 175, 176, 177, 178, 179, 180, 181, 182, 183, 184, 185, 186, 187, 188, 189, 190, 191, 192, 193, 194, 195, 196, 197, 198, 199, 200, 201, 202, 203, 204, 205, 206, 207, 208, 209, 210, 211, 212, 213, 214, 215, 216, 217, 218, 219, 220, 221, 222, 223, 224, 225, 226, 227, 228, 229, 230, 231, 232, 233, 234, 235, 236, 237, 238, 239, 240, 241, 242, 243, 244, 245, 246, 247, 248, 249, 250, 251, 252, 253, 254, 255, 256],
      "LargestImagePixelValue": [912, 843, 1046, 821, 915, 821, 865, 811, 814, 820, 815, 827, 836, 827, 812, 860, 799, 798, 824, 811, 811, 875, 812, 853, 913, 842, 836, 804, 839, 812, 827, 820, 936, 895, 901, 817, 855, 818, 870, 821, 903, 851, 816, 803, 846, 810, 823, 846, 823, 922, 937, 841, 812, 822, 813, 835, 810, 878, 830, 888, 846, 830, 857, 810, 853, 810, 830, 830, 819, 855, 803, 828, 842, 814, 836, 835, 828, 934, 809, 994, 822, 899, 815, 892, 827, 905, 819, 900, 808, 830, 944, 828, 1004, 839, 892, 811, 855, 801, 1000, 822, 898, 813, 916, 875, 846, 817, 814, 839, 856, 849, 804, 834, 807, 834, 817, 815, 812, 963, 808, 893, 807, 984, 810, 952, 838, 856, 836, 843, 840, 824, 851, 819, 872, 814, 813, 879, 820, 897, 1035, 828, 897, 824, 828, 859, 813, 818, 829, 974, 822, 824, 814, 828, 841, 947, 895, 881, 894, 833, 857, 822, 831, 857, 819, 897, 795, 896, 812, 806, 882, 807, 811, 809, 875, 815, 974, 812, 933, 854, 866, 861, 831, 895, 828, 822, 891, 836, 823, 923, 845, 852, 820, 817, 810, 840, 943, 1075, 820, 856, 819, 897, 810, 828, 823, 827, 816, 815, 906, 805, 906, 808, 866, 815, 863, 802, 860, 863, 814, 1006, 824, 899, 810, 1031, 815, 889, 821, 973, 867, 879, 807, 819, 851, 827, 915, 808, 896, 810, 858, 825, 803, 887, 805, 843, 804, 801, 817, 818, 978, 844, 910, 827, 826, 1041, 822, 916, 813, 852],
      "WindowCenter": [461.0, 460.0, 461.0, 458.0, 460.0, 458.0, 459.0, 458.0, 459.0, 459.0, 459.0, 459.0, 460.0, 460.0, 460.0, 460.0, 460.0, 459.0, 461.0, 460.0, 460.0, 461.0, 460.0, 461.0, 461.0, 460.0, 460.0, 460.0, 460.0, 460.0, 460.0, 461.0, 462.0, 461.0, 461.0, 460.0, 461.0, 460.0, 461.0, 460.0, 461.0, 460.0, 460.0, 459.0, 460.0, 460.0, 460.0, 460.0, 460.0, 461.0, 460.0, 460.0, 459.0, 460.0, 460.0, 461.0, 460.0, 462.0, 460.0, 461.0, 460.0, 460.0, 460.0, 459.0, 460.0, 460.0, 460.0, 460.0, 460.0, 459.0, 459.0, 459.0, 460.0, 459.0, 460.0, 460.0, 461.0, 461.0, 460.0, 462.0, 460.0, 460.0, 459.0, 460.0, 460.0, 460.0, 459.0, 461.0, 460.0, 460.0, 462.0, 460.0, 462.0, 460.0, 462.0, 460.0, 462.0, 461.0, 463.0, 461.0, 461.0, 460.0, 461.0, 461.0, 460.0, 460.0, 460.0, 460.0, 460.0, 460.0, 460.0, 460.0, 460.0, 460.0, 460.0, 461.0, 461.0, 463.0, 461.0, 462.0, 460.0, 463.0, 461.0, 462.0, 460.0, 461.0, 460.0, 461.0, 461.0, 461.0, 462.0, 460.0, 462.0, 463.0, 463.0, 463.0, 462.0, 462.0, 463.0, 460.0, 462.0, 460.0, 461.0, 460.0, 460.0, 460.0, 460.0, 463.0, 460.0, 461.0, 460.0, 461.0, 462.0, 463.0, 462.0, 461.0, 462.0, 460.0, 461.0, 461.0, 461.0, 462.0, 461.0, 462.0, 461.0, 462.0, 461.0, 461.0, 461.0, 461.0, 461.0, 461.0, 462.0, 461.0, 463.0, 461.0, 463.0, 462.0, 462.0, 462.0, 461.0, 462.0, 462.0, 461.0, 462.0, 461.0, 461.0, 462.0, 460.0, 461.0, 461.0, 462.0, 462.0, 463.0, 463.0, 465.0, 461.0, 462.0, 461.0, 463.0, 461.0, 461.0, 461.0, 462.0, 462.0, 462.0, 463.0, 461.0, 463.0, 461.0, 463.0, 461.0, 463.0, 462.0, 463.0, 463.0, 461.0, 464.0, 461.0, 463.0, 462.0, 465.0, 462.0, 462.0, 461.0, 463.0, 462.0, 462.0, 460.0, 460.0, 462.0, 461.0, 463.0, 461.0, 462.0, 462.0, 462.0, 461.0, 462.0, 462.0, 462.0, 462.0, 462.0, 462.0, 463.0, 463.0, 464.0, 463.0, 463.0, 461.0, 461.0, 464.0, 461.0, 462.0, 462.0, 462.0],
      "WindowWidth": [963.0, 961.0, 962.0, 958.0, 960.0, 958.0, 960.0, 958.0, 959.0, 959.0, 959.0, 960.0, 962.0, 962.0, 962.0, 962.0, 962.0, 960.0, 963.0, 962.0, 962.0, 962.0, 962.0, 962.0, 962.0, 961.0, 961.0, 961.0, 962.0, 962.0, 962.0, 963.0, 965.0, 964.0, 963.0, 961.0, 963.0, 961.0, 963.0, 961.0, 963.0, 961.0, 960.0, 960.0, 961.0, 961.0, 962.0, 962.0, 961.0, 962.0, 962.0, 960.0, 960.0, 961.0, 961.0, 963.0, 962.0, 964.0, 962.0, 963.0, 962.0, 961.0, 961.0, 959.0, 961.0, 962.0, 961.0, 961.0, 961.0, 960.0, 960.0, 959.0, 960.0, 960.0, 962.0, 962.0, 963.0, 963.0, 961.0, 964.0, 960.0, 961.0, 960.0, 961.0, 960.0, 961.0, 959.0, 962.0, 961.0, 962.0, 964.0, 961.0, 965.0, 962.0, 965.0, 962.0, 964.0, 963.0, 966.0, 963.0, 963.0, 962.0, 963.0, 963.0, 961.0, 961.0, 961.0, 961.0, 961.0, 961.0, 961.0, 962.0, 961.0, 961.0, 962.0, 963.0, 964.0, 966.0, 962.0, 965.0, 962.0, 967.0, 962.0, 965.0, 962.0, 963.0, 962.0, 962.0, 963.0, 962.0, 964.0, 962.0, 964.0, 968.0, 966.0, 967.0, 965.0, 965.0, 967.0, 961.0, 964.0, 962.0, 963.0, 962.0, 961.0, 962.0, 962.0, 966.0, 962.0, 962.0, 962.0, 964.0, 964.0, 966.0, 964.0, 963.0, 964.0, 962.0, 963.0, 963.0, 964.0, 964.0, 964.0, 965.0, 963.0, 965.0, 964.0, 963.0, 963.0, 963.0, 963.0, 963.0, 964.0, 962.0, 966.0, 964.0, 966.0, 964.0, 964.0, 964.0, 963.0, 965.0, 964.0, 964.0, 964.0, 964.0, 962.0, 964.0, 962.0, 963.0, 963.0, 965.0, 965.0, 966.0, 967.0, 969.0, 964.0, 965.0, 964.0, 966.0, 964.0, 964.0, 964.0, 965.0, 965.0, 965.0, 966.0, 963.0, 966.0, 963.0, 966.0, 964.0, 966.0, 965.0, 966.0, 966.0, 964.0, 967.0, 964.0, 967.0, 965.0, 969.0, 965.0, 965.0, 964.0, 966.0, 965.0, 964.0, 962.0, 962.0, 964.0, 964.0, 966.0, 963.0, 965.0, 965.0, 965.0, 964.0, 964.0, 965.0, 965.0, 965.0, 966.0, 966.0, 967.0, 967.0, 969.0, 966.0, 967.0, 964.0, 964.0, 967.0, 963.0, 965.0, 964.0, 965.0]
    },
    "slices": {}
  }
}