{
  "AcquisitionMatrixPE": 64,
  "AcquisitionNumber": 1,
  "AcquisitionTime": "15:50:20.267500",
  "BandwidthPerPixelPhaseEncode": 40.064,
  "BaseResolution": 64,
  "BodyPartExamined": "BRAIN",
  "ConsistencyInfo": "N4_VD13D_LATEST_20130810",
  "ConversionSoftware": "dcm2niix",
  "ConversionSoftwareVersion": "v1.0.20191031",
  "DerivedVendorReportedEchoSpacing": 0.000780002,
  "DeviceSerialNumber": "67007",
  "DwellTime": 5.3e-06,
  "EchoTime": 0.03,
  "EchoTrainLength": 31,
  "EffectiveEchoSpacing": 0.000390001,
  "FlipAngle": 75,
  "ImageOrientationPatientDICOM": [0.999024, 0.0394212, -0.0199171, -0.040125, 0.998536, -0.0362639],
  "ImageType": [
    "ORIGINAL",
    "PRIMARY",
    "M",
    "ND",
    "NORM",
    "MOSAIC"
],
  "ImagingFrequency": 123.211,
  "InPlanePhaseEncodingDirectionDICOM": "ROW",
  "InstitutionAddress": "Perth_Drive_100_London_Ontario_CA_N6A_5K8",
  "InstitutionName": "Robarts_Research_Institute",
  "InstitutionalDepartmentName": "CFMM",
  "MRAcquisitionType": "2D",
  "MagneticFieldStrength": 3,
  "Manufacturer": "Siemens",
  "ManufacturersModelName": "Prisma_fit",
  "Modality": "MR",
  "ParallelReductionFactorInPlane": 2,
  "PartialFourier": 1,
  "PatientPosition": "HFS",
  "PercentPhaseFOV": 100,
  "PhaseEncodingDirection": "i",
  "PhaseEncodingSteps": 63,
  "PhaseResolution": 1,
  "PixelBandwidth": 1475,
  "ProcedureStepDescription": "Owen_Naci",
  "ProtocolName": "taken",
  "PulseSequenceDetails": "%SiemensSeq%_ep2d_bold",
  "ReceiveCoilActiveElements": "HEA;HEP",
  "ReceiveCoilName": "Head_32",
  "ReconMatrixPE": 64,
  "RefLinesPE": 24,
  "RepetitionTime": 2,
  "SAR": 0.120539,
  "ScanOptions": "FS",
  "ScanningSequence": "EP",
  "SequenceName": "_epfid2d1_64",
  "SequenceVariant": "SK",
  "SeriesDescription": "taken",
  "SeriesNumber": 3,
  "ShimSetting": [5260, -6160, -3806, 371, 32, 31, 170, -24],
  "SliceThickness": 3,
  "SliceTiming": [1.9175, 1.8575, 1.7975, 1.7375, 1.6775, 1.6175, 1.5575, 1.4975, 1.4375, 1.3775, 1.3175, 1.2575, 1.1975, 1.1375, 1.08, 1.02, 0.96, 0.9, 0.84, 0.78, 0.72, 0.66, 0.6, 0.54, 0.48, 0.42, 0.36, 0.3, 0.24, 0.18, 0.12, 0.06, 0],
  "SoftwareVersions": "syngo_MR_D13D",
  "SpacingBetweenSlices": 3.75,
  "StationName": "AWP67007",
  "TaskName": "audio",
  "TotalReadoutTime": 0.0245701,
  "TxRefAmp": 315.206,
  "dcmmeta_affine": [
    [-2.997072458267212, -0.12037487328052521, -0.06921909004449844, 101.59880828857422],
    [-0.11826367676258087, 2.9956092834472656, -0.1388537585735321, -70.7599868774414],
    [-0.05975142493844032, 0.10879164189100266, 3.7467892169952393, -16.97481346130371],
    [0.0, 0.0, 0.0, 1.0]
],
  "dcmmeta_reorient_transform": [
    [0.0, -1.0, 0.0, 63.0],
    [1.0, 0.0, 0.0, 0.0],
    [0.0, 0.0, 1.0, 0.0],
    [0.0, 0.0, 0.0, 1.0]
],
  "dcmmeta_shape": [64, 64, 33, 155],
  "dcmmeta_slice_dim": 2,
  "dcmmeta_version": 0.6,
  "global": {
    "const": {
      "AcquisitionMatrix": [0, 64, 64, 0],
      "AngioFlag": "N",
      "BitsAllocated": 16,
      "BitsStored": 12,
      "BodyPartExamined": "BRAIN",
      "Columns": 384,
      "EchoNumbers": 1,
      "EchoTime": 30.0,
      "EchoTrainLength": 31,
      "FlipAngle": 75.0,
      "HighBit": 11,
      "ImageOrientationPatient": [0.999024161068, 0.03942122603311, -0.019917141874, -0.0401249570133, 0.99853638831998, -0.0362638804538],
      "ImagePositionPatient": [-554.28681168223, -616.18304768989, 16.845951348273],
      "ImageType": [
        "ORIGINAL",
        "PRIMARY",
        "M",
        "ND",
        "NORM",
        "MOSAIC"
],
      "ImagedNucleus": "1H",
      "ImagingFrequency": 123.211115,
      "InPlanePhaseEncodingDirection": "ROW",
      "MRAcquisitionType": "2D",
      "MagneticFieldStrength": 3.0,
      "Manufacturer": "SIEMENS",
      "ManufacturerModelName": "Prisma_fit",
      "Modality": "MR",
      "NumberOfAverages": 1.0,
      "NumberOfPhaseEncodingSteps": 63,
      "PercentPhaseFieldOfView": 100.0,
      "PercentSampling": 100.0,
      "PerformedProcedureStepStartTime": "153823.205000",
      "PhotometricInterpretation": "MONOCHROME2",
      "PixelBandwidth": 1475.0,
      "PixelRepresentation": 0,
      "PixelSpacing": [3.0, 3.0],
      "ProtocolName": "taken",
      "RepetitionTime": 2000.0,
      "Rows": 384,
      "SAR": 0.12053936796567,
      "SamplesPerPixel": 1,
      "ScanOptions": "FS",
      "ScanningSequence": "EP",
      "SequenceName": "*epfid2d1_64",
      "SequenceVariant": "SK",
      "SeriesDescription": "taken",
      "SeriesNumber": 3,
      "SeriesTime": "155107.262000",
      "SliceLocation": -16.215554928003,
      "SliceThickness": 3.0,
      "SmallestImagePixelValue": 0,
      "SoftwareVersions": "syngo MR D13D",
      "SpacingBetweenSlices": 3.7500000542024,
      "SpecificCharacterSet": "ISO_IR 100",
      "StudyID": "1",
      "StudyTime": "153823.146000",
      "TimeOfLastCalibration": ["123723.000000", "123723.000000"],
      "TransmitCoilName": "Body",
      "VariableFlipAngleFlag": "N",
      "WindowCenterWidthExplanation": "Algo1",
      "dBdt": 0.0},
    "slices": {}
  },
  "time": {
    "samples": {
      "AcquisitionNumber": [1, 2, 3, 4, 5, 6, 7, 8, 9, 10, 11, 12, 13, 14, 15, 16, 17, 18, 19, 20, 21, 22, 23, 24, 25, 26, 27, 28, 29, 30, 31, 32, 33, 34, 35, 36, 37, 38, 39, 40, 41, 42, 43, 44, 45, 46, 47, 48, 49, 50, 51, 52, 53, 54, 55, 56, 57, 58, 59, 60, 61, 62, 63, 64, 65, 66, 67, 68, 69, 70, 71, 72, 73, 74, 75, 76, 77, 78, 79, 80, 81, 82, 83, 84, 85, 86, 87, 88, 89, 90, 91, 92, 93, 94, 95, 96, 97, 98, 99, 100, 101, 102, 103, 104, 105, 106, 107, 108, 109, 110, 111, 112, 113, 114, 115, 116, 117, 118, 119, 120, 121, 122, 123, 124, 125, 126, 127, 128, 129, 130, 131, 132, 133, 134, 135, 136, 137, 138, 139, 140, 141, 142, 143, 144, 145, 146, 147, 148, 149, 150, 151, 152, 153, 154, 155],
      "AcquisitionTime": ["155020.267500", "155022.267500", "155024.267500", "155026.267500", "155028.267500", "155030.267500", "155032.267500", "155034.267500", "155036.267500", "155038.267500", "155040.267500", "155042.267500", "155044.267500", "155046.267500", "155048.270000", "155050.270000", "155052.270000", "155054.270000", "155056.270000", "155058.270000", "155100.270000", "155102.270000", "155104.270000", "155106.270000", "155108.270000", "155110.270000", "155112.270000", "155114.270000", "155116.270000", "155118.270000", "155120.270000", "155122.270000", "155124.270000", "155126.270000", "155128.270000", "155130.270000", "155132.270000", "155134.270000", "155136.270000", "155138.270000", "155140.270000", "155142.270000", "155144.270000", "155146.270000", "155148.270000", "155150.270000", "155152.270000", "155154.270000", "155156.270000", "155158.270000", "155200.270000", "155202.270000", "155204.270000", "155206.270000", "155208.270000", "155210.270000", "155212.270000", "155214.270000", "155216.270000", "155218.270000", "155220.270000", "155222.270000", "155224.270000", "155226.270000", "155228.270000", "155230.270000", "155232.270000", "155234.270000", "155236.270000", "155238.270000", "155240.270000", "155242.270000", "155244.270000", "155246.270000", "155248.270000", "155250.270000", "155252.270000", "155254.270000", "155256.270000", "155258.270000", "155300.270000", "155302.270000", "155304.270000", "155306.270000", "155308.270000", "155310.270000", "155312.270000", "155314.270000", "155316.270000", "155318.270000", "155320.270000", "155322.270000", "155324.270000", "155326.270000", "155328.270000", "155330.270000", "155332.270000", "155334.270000", "155336.270000", "155338.270000", "155340.270000", "155342.270000", "155344.270000", "155346.270000", "155348.270000", "155350.270000", "155352.270000", "155354.270000", "155356.270000", "155358.270000", "155400.270000", "155402.270000", "155404.270000", "155406.270000", "155408.270000", "155410.270000", "155412.270000", "155414.270000", "155416.270000", "155418.270000", "155420.270000", "155422.270000", "155424.270000", "155426.270000", "155428.270000", "155430.270000", "155432.270000", "155434.270000", "155436.270000", "155438.270000", "155440.270000", "155442.270000", "155444.270000", "155446.270000", "155448.270000", "155450.270000", "155452.270000", "155454.270000", "155456.270000", "155458.270000", "155500.270000", "155502.270000", "155504.270000", "155506.270000", "155508.270000", "155510.270000", "155512.270000", "155514.270000", "155516.270000", "155518.270000", "155520.270000", "155522.270000", "155524.270000", "155526.270000", "155528.270000"],
      "ContentTime": ["155107.266000", "155107.270000", "155107.273000", "155107.276000", "155107.278000", "155107.281000", "155107.284000", "155107.286000", "155107.289000", "155107.292000", "155107.295000", "155107.297000", "155107.300000", "155107.303000", "155107.306000", "155107.309000", "155107.312000", "155107.315000", "155107.317000", "155107.320000", "155107.323000", "155107.326000", "155107.329000", "155107.332000", "155147.260000", "155147.263000", "155147.266000", "155147.269000", "155147.271000", "155147.274000", "155147.277000", "155147.279000", "155147.282000", "155147.285000", "155147.287000", "155147.290000", "155147.293000", "155147.296000", "155147.298000", "155147.301000", "155147.304000", "155147.307000", "155147.310000", "155147.313000", "155227.261000", "155227.264000", "155227.267000", "155227.270000", "155227.273000", "155227.275000", "155227.278000", "155227.281000", "155227.284000", "155227.286000", "155227.289000", "155227.292000", "155227.295000", "155227.298000", "155227.300000", "155227.303000", "155227.306000", "155227.309000", "155227.312000", "155227.314000", "155307.260000", "155307.264000", "155307.266000", "155307.269000", "155307.272000", "155307.274000", "155307.277000", "155307.280000", "155307.283000", "155307.286000", "155307.289000", "155307.292000", "155307.294000", "155307.297000", "155307.300000", "155307.302000", "155307.305000", "155307.308000", "155307.311000", "155307.314000", "155347.260000", "155347.264000", "155347.267000", "155347.269000", "155347.272000", "155347.275000", "155347.278000", "155347.280000", "155347.283000", "155347.286000", "155347.289000", "155347.292000", "155347.295000", "155347.298000", "155347.300000", "155347.303000", "155347.306000", "155347.309000", "155347.311000", "155347.314000", "155427.259000", "155427.263000", "155427.265000", "155427.268000", "155427.272000", "155427.274000", "155427.277000", "155427.280000", "155427.282000", "155427.285000", "155427.288000", "155427.291000", "155427.294000", "155427.297000", "155427.300000", "155427.302000", "155427.305000", "155427.308000", "155427.311000", "155427.314000", "155507.261000", "155507.265000", "155507.267000", "155507.270000", "155507.273000", "155507.276000", "155507.279000", "155507.282000", "155507.285000", "155507.288000", "155507.290000", "155507.294000", "155507.296000", "155507.299000", "155507.302000", "155507.305000", "155507.308000", "155507.310000", "155507.313000", "155507.316000", "155528.492000", "155528.495000", "155528.499000", "155528.502000", "155528.504000", "155528.508000", "155528.511000", "155528.513000", "155528.516000", "155528.520000", "155528.523000"],
      "InstanceCreationTime": ["155107.266000", "155107.270000", "155107.273000", "155107.276000", "155107.278000", "155107.281000", "155107.284000", "155107.286000", "155107.289000", "155107.292000", "155107.295000", "155107.297000", "155107.300000", "155107.303000", "155107.306000", "155107.309000", "155107.312000", "155107.315000", "155107.317000", "155107.320000", "155107.323000", "155107.326000", "155107.329000", "155107.332000", "155147.260000", "155147.263000", "155147.266000", "155147.269000", "155147.271000", "155147.274000", "155147.277000", "155147.279000", "155147.282000", "155147.285000", "155147.287000", "155147.290000", "155147.293000", "155147.296000", "155147.298000", "155147.301000", "155147.304000", "155147.307000", "155147.310000", "155147.313000", "155227.261000", "155227.264000", "155227.267000", "155227.270000", "155227.273000", "155227.275000", "155227.278000", "155227.281000", "155227.284000", "155227.286000", "155227.289000", "155227.292000", "155227.295000", "155227.298000", "155227.300000", "155227.303000", "155227.306000", "155227.309000", "155227.312000", "155227.314000", "155307.260000", "155307.264000", "155307.266000", "155307.269000", "155307.272000", "155307.274000", "155307.277000", "155307.280000", "155307.283000", "155307.286000", "155307.289000", "155307.292000", "155307.294000", "155307.297000", "155307.300000", "155307.302000", "155307.305000", "155307.308000", "155307.311000", "155307.314000", "155347.260000", "155347.264000", "155347.267000", "155347.269000", "155347.272000", "155347.275000", "155347.278000", "155347.280000", "155347.283000", "155347.286000", "155347.289000", "155347.292000", "155347.295000", "155347.298000", "155347.300000", "155347.303000", "155347.306000", "155347.309000", "155347.311000", "155347.314000", "155427.259000", "155427.263000", "155427.265000", "155427.268000", "155427.272000", "155427.274000", "155427.277000", "155427.280000", "155427.282000", "155427.285000", "155427.288000", "155427.291000", "155427.294000", "155427.297000", "155427.300000", "155427.302000", "155427.305000", "155427.308000", "155427.311000", "155427.314000", "155507.261000", "155507.265000", "155507.267000", "155507.270000", "155507.273000", "155507.276000", "155507.279000", "155507.282000", "155507.285000", "155507.288000", "155507.290000", "155507.294000", "155507.296000", "155507.299000", "155507.302000", "155507.305000", "155507.308000", "155507.310000", "155507.313000", "155507.316000", "155528.492000", "155528.495000", "155528.499000", "155528.502000", "155528.504000", "155528.508000", "155528.511000", "155528.513000", "155528.516000", "155528.520000", "155528.523000"],
      "InstanceNumber": [1, 2, 3, 4, 5, 6, 7, 8, 9, 10, 11, 12, 13, 14, 15, 16, 17, 18, 19, 20, 21, 22, 23, 24, 25, 26, 27, 28, 29, 30, 31, 32, 33, 34, 35, 36, 37, 38, 39, 40, 41, 42, 43, 44, 45, 46, 47, 48, 49, 50, 51, 52, 53, 54, 55, 56, 57, 58, 59, 60, 61, 62, 63, 64, 65, 66, 67, 68, 69, 70, 71, 72, 73, 74, 75, 76, 77, 78, 79, 80, 81, 82, 83, 84, 85, 86, 87, 88, 89, 90, 91, 92, 93, 94, 95, 96, 97, 98, 99, 100, 101, 102, 103, 104, 105, 106, 107, 108, 109, 110, 111, 112, 113, 114, 115, 116, 117, 118, 119, 120, 121, 122, 123, 124, 125, 126, 127, 128, 129, 130, 131, 132, 133, 134, 135, 136, 137, 138, 139, 140, 141, 142, 143, 144, 145, 146, 147, 148, 149, 150, 151, 152, 153, 154, 155],
      "LargestImagePixelValue": [900, 868, 908, 852, 882, 862, 854, 853, 874, 868, 865, 864, 908, 853, 917, 873, 855, 855, 848, 873, 868, 899, 941, 853, 828, 913, 863, 896, 887, 863, 880, 880, 946, 841, 869, 902, 858, 909, 856, 910, 887, 1080, 1047, 857, 907, 851, 933, 913, 858, 852, 955, 854, 861, 916, 832, 871, 859, 923, 898, 827, 857, 890, 960, 942, 1007, 947, 850, 845, 846, 843, 863, 861, 885, 991, 894, 871, 829, 848, 843, 908, 852, 880, 833, 887, 866, 891, 927, 865, 853, 848, 881, 860, 909, 870, 836, 873, 943, 862, 828, 848, 859, 847, 889, 1077, 850, 858, 857, 883, 841, 828, 840, 851, 864, 850, 891, 851, 890, 896, 878, 881, 899, 825, 859, 967, 891, 870, 852, 880, 874, 924, 846, 897, 869, 951, 884, 816, 842, 870, 853, 922, 883, 864, 823, 852, 877, 901, 841, 894, 827, 832, 851, 983, 914, 861, 874],
      "WindowCenter": [457.0, 456.0, 456.0, 455.0, 457.0, 457.0, 457.0, 457.0, 459.0, 459.0, 458.0, 457.0, 458.0, 458.0, 459.0, 457.0, 457.0, 457.0, 457.0, 458.0, 457.0, 458.0, 459.0, 458.0, 457.0, 459.0, 456.0, 458.0, 457.0, 458.0, 457.0, 458.0, 458.0, 457.0, 458.0, 459.0, 458.0, 458.0, 458.0, 459.0, 460.0, 461.0, 460.0, 456.0, 458.0, 457.0, 459.0, 458.0, 458.0, 459.0, 460.0, 457.0, 456.0, 457.0, 457.0, 458.0, 457.0, 458.0, 458.0, 458.0, 458.0, 458.0, 459.0, 459.0, 458.0, 456.0, 455.0, 455.0, 455.0, 455.0, 456.0, 456.0, 456.0, 459.0, 457.0, 457.0, 457.0, 458.0, 457.0, 458.0, 457.0, 457.0, 456.0, 457.0, 457.0, 458.0, 458.0, 456.0, 457.0, 457.0, 458.0, 457.0, 458.0, 458.0, 458.0, 458.0, 458.0, 458.0, 457.0, 458.0, 457.0, 458.0, 459.0, 460.0, 457.0, 456.0, 456.0, 457.0, 456.0, 456.0, 457.0, 456.0, 457.0, 457.0, 458.0, 457.0, 458.0, 459.0, 459.0, 459.0, 459.0, 458.0, 460.0, 461.0, 459.0, 459.0, 458.0, 458.0, 458.0, 458.0, 457.0, 459.0, 458.0, 460.0, 458.0, 457.0, 457.0, 458.0, 457.0, 458.0, 458.0, 459.0, 458.0, 460.0, 460.0, 459.0, 458.0, 460.0, 459.0, 459.0, 459.0, 460.0, 458.0, 458.0, 458.0],
      "WindowWidth": [959.0, 956.0, 957.0, 954.0, 958.0, 957.0, 958.0, 958.0, 962.0, 961.0, 960.0, 958.0, 959.0, 960.0, 962.0, 958.0, 959.0, 958.0, 958.0, 960.0, 958.0, 960.0, 960.0, 960.0, 959.0, 961.0, 957.0, 959.0, 958.0, 959.0, 958.0, 959.0, 960.0, 959.0, 961.0, 960.0, 960.0, 960.0, 961.0, 962.0, 964.0, 965.0, 962.0, 957.0, 959.0, 958.0, 961.0, 959.0, 961.0, 961.0, 963.0, 957.0, 955.0, 957.0, 957.0, 959.0, 958.0, 960.0, 959.0, 959.0, 959.0, 960.0, 961.0, 961.0, 959.0, 956.0, 954.0, 954.0, 953.0, 954.0, 955.0, 955.0, 957.0, 960.0, 957.0, 957.0, 957.0, 960.0, 958.0, 959.0, 957.0, 957.0, 957.0, 958.0, 958.0, 960.0, 959.0, 956.0, 957.0, 957.0, 959.0, 959.0, 960.0, 960.0, 960.0, 960.0, 960.0, 959.0, 958.0, 960.0, 958.0, 959.0, 962.0, 962.0, 957.0, 956.0, 955.0, 958.0, 957.0, 957.0, 958.0, 957.0, 958.0, 958.0, 960.0, 958.0, 960.0, 961.0, 962.0, 961.0, 962.0, 961.0, 963.0, 965.0, 962.0, 961.0, 959.0, 959.0, 959.0, 960.0, 957.0, 961.0, 960.0, 963.0, 960.0, 959.0, 959.0, 959.0, 958.0, 960.0, 960.0, 961.0, 961.0, 963.0, 963.0, 961.0, 959.0, 962.0, 963.0, 962.0, 962.0, 963.0, 960.0, 960.0, 959.0]
    },
    "slices": {}
  }
}