{
  "AcquisitionMatrixPE": 64,
  "AcquisitionNumber": 1,
  "AcquisitionTime": "19:19:44.712500",
  "BandwidthPerPixelPhaseEncode": 40.064,
  "BaseResolution": 64,
  "BodyPartExamined": "BRAIN",
  "ConsistencyInfo": "N4_VD13D_LATEST_20130810",
  "ConversionSoftware": "dcm2niix",
  "ConversionSoftwareVersion": "v1.0.20191031",
  "DerivedVendorReportedEchoSpacing": 0.000780002,
  "DeviceSerialNumber": "67007",
  "DwellTime": 5.3e-06,
  "EchoTime": 0.03,
  "EchoTrainLength": 31,
  "EffectiveEchoSpacing": 0.000390001,
  "FlipAngle": 75,
  "ImageOrientationPatientDICOM": [0.999504, -0.0265632, 0.0169154, 0.0279187, 0.995929, -0.0857042],
  "ImageType": [
    "ORIGINAL",
    "PRIMARY",
    "M",
    "ND",
    "NORM",
    "MOSAIC"
],
  "ImagingFrequency": 123.211,
  "InPlanePhaseEncodingDirectionDICOM": "ROW",
  "InstitutionAddress": "Perth_Drive_100_London_Ontario_CA_N6A_5K8",
  "InstitutionName": "Robarts-CFMM",
  "InstitutionalDepartmentName": "CFMM",
  "MRAcquisitionType": "2D",
  "MagneticFieldStrength": 3,
  "Manufacturer": "Siemens",
  "ManufacturersModelName": "Prisma_fit",
  "Modality": "MR",
  "ParallelReductionFactorInPlane": 2,
  "PartialFourier": 1,
  "PatientPosition": "HFS",
  "PercentPhaseFOV": 100,
  "PhaseEncodingDirection": "i",
  "PhaseEncodingSteps": 63,
  "PhaseResolution": 1,
  "PixelBandwidth": 1475,
  "ProcedureStepDescription": "Owen_Naci",
  "ProtocolName": "Taken_RECOV",
  "PulseSequenceDetails": "%SiemensSeq%_ep2d_bold",
  "ReceiveCoilActiveElements": "HEA;HEP",
  "ReceiveCoilName": "Head_32",
  "ReconMatrixPE": 64,
  "RefLinesPE": 24,
  "RepetitionTime": 2,
  "SAR": 0.0924669,
  "ScanOptions": "FS",
  "ScanningSequence": "EP",
  "SequenceName": "_epfid2d1_64",
  "SequenceVariant": "SK",
  "SeriesDescription": "Taken_RECOV",
  "SeriesNumber": 26,
  "ShimSetting": [5257, -6190, -3785, 426, 25, 9, -8, 42],
  "SliceThickness": 3,
  "SliceTiming": [1.92, 1.86, 1.8, 1.74, 1.68, 1.62, 1.56, 1.5, 1.44, 1.38, 1.32, 1.26, 1.2, 1.14, 1.08, 1.02, 0.96, 0.9, 0.84, 0.78, 0.72, 0.66, 0.6, 0.54, 0.48, 0.42, 0.36, 0.3, 0.24, 0.18, 0.12, 0.06, 0],
  "SoftwareVersions": "syngo_MR_D13D",
  "SpacingBetweenSlices": 3.75,
  "StationName": "AWP67007",
  "TaskName": "audio",
  "TotalReadoutTime": 0.0245701,
  "TxRefAmp": 266.848,
  "dcmmeta_affine": [
    [-2.998512029647827, 0.08375602215528488, 0.05463742837309837, 93.5044937133789],
    [0.07968969643115997, 2.987788200378418, -0.32300230860710144, -77.36299133300781],
    [0.05074625462293625, 0.257112592458725, 3.735663890838623, -27.535425186157227],
    [0.0, 0.0, 0.0, 1.0]
],
  "dcmmeta_reorient_transform": [
    [0.0, -1.0, 0.0, 63.0],
    [1.0, 0.0, 0.0, 0.0],
    [0.0, 0.0, 1.0, 0.0],
    [0.0, 0.0, 0.0, 1.0]
],
  "dcmmeta_shape": [64, 64, 33, 155],
  "dcmmeta_slice_dim": 2,
  "dcmmeta_version": 0.6,
  "global": {
    "const": {
      "AcquisitionMatrix": [0, 64, 64, 0],
      "AngioFlag": "N",
      "BitsAllocated": 16,
      "BitsStored": 12,
      "BodyPartExamined": "BRAIN",
      "Columns": 384,
      "EchoNumbers": 1,
      "EchoTime": 30.0,
      "EchoTrainLength": 31,
      "FlipAngle": 75.0,
      "HighBit": 11,
      "ImageOrientationPatient": [0.99950400865347, -0.0265632325626, 0.01691541786268, 0.02791867365027, 0.99592938372995, -0.0857042022593],
      "ImagePositionPatient": [-591.94400748564, -576.16341480641, 21.681286421936],
      "ImageType": [
        "ORIGINAL",
        "PRIMARY",
        "M",
        "ND",
        "NORM",
        "MOSAIC"
],
      "ImagedNucleus": "1H",
      "ImagingFrequency": 123.210998,
      "InPlanePhaseEncodingDirection": "ROW",
      "MRAcquisitionType": "2D",
      "MagneticFieldStrength": 3.0,
      "Manufacturer": "SIEMENS",
      "ManufacturerModelName": "Prisma_fit",
      "Modality": "MR",
      "NumberOfAverages": 1.0,
      "NumberOfPhaseEncodingSteps": 63,
      "PercentPhaseFieldOfView": 100.0,
      "PercentSampling": 100.0,
      "PerformedProcedureStepStartTime": "171722.110000",
      "PhotometricInterpretation": "MONOCHROME2",
      "PixelBandwidth": 1475.0,
      "PixelRepresentation": 0,
      "PixelSpacing": [3.0, 3.0],
      "ProtocolName": "Taken_RECOV",
      "RepetitionTime": 2000.0,
      "Rows": 384,
      "SAR": 0.09246693648445,
      "SamplesPerPixel": 1,
      "ScanOptions": "FS",
      "ScanningSequence": "EP",
      "SequenceName": "*epfid2d1_64",
      "SequenceVariant": "SK",
      "SeriesDescription": "Taken_RECOV",
      "SeriesNumber": 26,
      "SeriesTime": "192029.429000",
      "SliceLocation": -19.404218324505,
      "SliceThickness": 3.0,
      "SmallestImagePixelValue": 0,
      "SoftwareVersions": "syngo MR D13D",
      "SpacingBetweenSlices": 3.7500000025786,
      "SpecificCharacterSet": "ISO_IR 100",
      "StudyID": "1",
      "StudyTime": "171722.004000",
      "TimeOfLastCalibration": ["123723.000000", "123723.000000"],
      "TransmitCoilName": "Body",
      "VariableFlipAngleFlag": "N",
      "WindowCenterWidthExplanation": "Algo1",
      "dBdt": 0.0},
    "slices": {}
  },
  "time": {
    "samples": {
      "AcquisitionNumber": [1, 2, 3, 4, 5, 6, 7, 8, 9, 10, 11, 12, 13, 14, 15, 16, 17, 18, 19, 20, 21, 22, 23, 24, 25, 26, 27, 28, 29, 30, 31, 32, 33, 34, 35, 36, 37, 38, 39, 40, 41, 42, 43, 44, 45, 46, 47, 48, 49, 50, 51, 52, 53, 54, 55, 56, 57, 58, 59, 60, 61, 62, 63, 64, 65, 66, 67, 68, 69, 70, 71, 72, 73, 74, 75, 76, 77, 78, 79, 80, 81, 82, 83, 84, 85, 86, 87, 88, 89, 90, 91, 92, 93, 94, 95, 96, 97, 98, 99, 100, 101, 102, 103, 104, 105, 106, 107, 108, 109, 110, 111, 112, 113, 114, 115, 116, 117, 118, 119, 120, 121, 122, 123, 124, 125, 126, 127, 128, 129, 130, 131, 132, 133, 134, 135, 136, 137, 138, 139, 140, 141, 142, 143, 144, 145, 146, 147, 148, 149, 150, 151, 152, 153, 154, 155],
      "AcquisitionTime": ["191944.712500", "191946.712500", "191948.712500", "191950.712500", "191952.712500", "191954.712500", "191956.712500", "191958.712500", "192000.712500", "192002.712500", "192004.712500", "192006.712500", "192008.712500", "192010.712500", "192012.712500", "192014.712500", "192016.712500", "192018.712500", "192020.712500", "192022.712500", "192024.712500", "192026.712500", "192028.712500", "192030.712500", "192032.712500", "192034.712500", "192036.712500", "192038.712500", "192040.712500", "192042.712500", "192044.712500", "192046.712500", "192048.712500", "192050.712500", "192052.712500", "192054.712500", "192056.712500", "192058.712500", "192100.712500", "192102.712500", "192104.712500", "192106.712500", "192108.712500", "192110.712500", "192112.712500", "192114.712500", "192116.712500", "192118.712500", "192120.712500", "192122.712500", "192124.712500", "192126.712500", "192128.712500", "192130.712500", "192132.712500", "192134.712500", "192136.712500", "192138.712500", "192140.712500", "192142.712500", "192144.712500", "192146.712500", "192148.712500", "192150.712500", "192152.712500", "192154.712500", "192156.712500", "192158.712500", "192200.712500", "192202.712500", "192204.712500", "192206.712500", "192208.712500", "192210.712500", "192212.712500", "192214.712500", "192216.712500", "192218.712500", "192220.712500", "192222.712500", "192224.712500", "192226.712500", "192228.712500", "192230.712500", "192232.712500", "192234.712500", "192236.712500", "192238.712500", "192240.712500", "192242.712500", "192244.712500", "192246.712500", "192248.712500", "192250.712500", "192252.712500", "192254.712500", "192256.712500", "192258.712500", "192300.712500", "192302.712500", "192304.712500", "192306.712500", "192308.712500", "192310.712500", "192312.712500", "192314.712500", "192316.712500", "192318.712500", "192320.712500", "192322.712500", "192324.712500", "192326.712500", "192328.712500", "192330.712500", "192332.712500", "192334.712500", "192336.712500", "192338.712500", "192340.712500", "192342.712500", "192344.712500", "192346.712500", "192348.712500", "192350.712500", "192352.712500", "192354.712500", "192356.712500", "192358.712500", "192400.712500", "192402.712500", "192404.712500", "192406.712500", "192408.712500", "192410.712500", "192412.712500", "192414.712500", "192416.712500", "192418.712500", "192420.712500", "192422.712500", "192424.712500", "192426.712500", "192428.712500", "192430.712500", "192432.712500", "192434.712500", "192436.712500", "192438.712500", "192440.712500", "192442.712500", "192444.712500", "192446.712500", "192448.712500", "192450.712500", "192452.712500"],
      "ContentTime": ["192029.433000", "192029.437000", "192029.440000", "192029.443000", "192029.445000", "192029.448000", "192029.451000", "192029.453000", "192029.456000", "192029.459000", "192029.461000", "192029.464000", "192029.467000", "192029.470000", "192029.472000", "192029.475000", "192029.478000", "192029.480000", "192029.483000", "192029.486000", "192029.489000", "192029.491000", "192029.494000", "192109.427000", "192109.431000", "192109.434000", "192109.436000", "192109.439000", "192109.442000", "192109.445000", "192109.448000", "192109.450000", "192109.453000", "192109.456000", "192109.459000", "192109.462000", "192109.465000", "192109.467000", "192109.470000", "192109.473000", "192109.475000", "192109.478000", "192109.481000", "192149.428000", "192149.431000", "192149.434000", "192149.437000", "192149.439000", "192149.442000", "192149.445000", "192149.448000", "192149.451000", "192149.454000", "192149.457000", "192149.459000", "192149.462000", "192149.465000", "192149.468000", "192149.471000", "192149.474000", "192149.477000", "192149.480000", "192149.483000", "192229.427000", "192229.430000", "192229.433000", "192229.436000", "192229.439000", "192229.442000", "192229.444000", "192229.447000", "192229.450000", "192229.453000", "192229.456000", "192229.458000", "192229.461000", "192229.464000", "192229.467000", "192229.470000", "192229.473000", "192229.476000", "192229.479000", "192229.482000", "192309.427000", "192309.430000", "192309.433000", "192309.436000", "192309.439000", "192309.441000", "192309.444000", "192309.447000", "192309.450000", "192309.453000", "192309.456000", "192309.459000", "192309.461000", "192309.464000", "192309.467000", "192309.470000", "192309.472000", "192309.475000", "192309.478000", "192309.480000", "192349.428000", "192349.432000", "192349.434000", "192349.437000", "192349.440000", "192349.443000", "192349.446000", "192349.449000", "192349.452000", "192349.454000", "192349.457000", "192349.460000", "192349.462000", "192349.465000", "192349.468000", "192349.471000", "192349.474000", "192349.476000", "192349.479000", "192349.482000", "192429.427000", "192429.431000", "192429.433000", "192429.436000", "192429.439000", "192429.442000", "192429.445000", "192429.448000", "192429.451000", "192429.453000", "192429.456000", "192429.459000", "192429.461000", "192429.464000", "192429.467000", "192429.470000", "192429.472000", "192429.475000", "192429.478000", "192429.481000", "192453.098000", "192453.101000", "192453.104000", "192453.107000", "192453.110000", "192453.113000", "192453.120000", "192453.123000", "192453.127000", "192453.131000", "192453.134000", "192453.137000"],
      "InstanceCreationTime": ["192029.433000", "192029.437000", "192029.440000", "192029.443000", "192029.445000", "192029.448000", "192029.451000", "192029.453000", "192029.456000", "192029.459000", "192029.461000", "192029.464000", "192029.467000", "192029.470000", "192029.472000", "192029.475000", "192029.478000", "192029.480000", "192029.483000", "192029.486000", "192029.489000", "192029.491000", "192029.494000", "192109.427000", "192109.431000", "192109.434000", "192109.436000", "192109.439000", "192109.442000", "192109.445000", "192109.448000", "192109.450000", "192109.453000", "192109.456000", "192109.459000", "192109.462000", "192109.465000", "192109.467000", "192109.470000", "192109.473000", "192109.475000", "192109.478000", "192109.481000", "192149.428000", "192149.431000", "192149.434000", "192149.437000", "192149.439000", "192149.442000", "192149.445000", "192149.448000", "192149.451000", "192149.454000", "192149.457000", "192149.459000", "192149.462000", "192149.465000", "192149.468000", "192149.471000", "192149.474000", "192149.477000", "192149.480000", "192149.483000", "192229.427000", "192229.430000", "192229.433000", "192229.436000", "192229.439000", "192229.442000", "192229.444000", "192229.447000", "192229.450000", "192229.453000", "192229.456000", "192229.458000", "192229.461000", "192229.464000", "192229.467000", "192229.470000", "192229.473000", "192229.476000", "192229.479000", "192229.482000", "192309.427000", "192309.430000", "192309.433000", "192309.436000", "192309.439000", "192309.441000", "192309.444000", "192309.447000", "192309.450000", "192309.453000", "192309.456000", "192309.459000", "192309.461000", "192309.464000", "192309.467000", "192309.470000", "192309.472000", "192309.475000", "192309.478000", "192309.480000", "192349.428000", "192349.432000", "192349.434000", "192349.437000", "192349.440000", "192349.443000", "192349.446000", "192349.449000", "192349.452000", "192349.454000", "192349.457000", "192349.460000", "192349.462000", "192349.465000", "192349.468000", "192349.471000", "192349.474000", "192349.476000", "192349.479000", "192349.482000", "192429.427000", "192429.431000", "192429.433000", "192429.436000", "192429.439000", "192429.442000", "192429.445000", "192429.448000", "192429.451000", "192429.453000", "192429.456000", "192429.459000", "192429.461000", "192429.464000", "192429.467000", "192429.470000", "192429.472000", "192429.475000", "192429.478000", "192429.481000", "192453.098000", "192453.101000", "192453.104000", "192453.107000", "192453.110000", "192453.113000", "192453.120000", "192453.123000", "192453.127000", "192453.131000", "192453.134000", "192453.137000"],
      "InstanceNumber": [1, 2, 3, 4, 5, 6, 7, 8, 9, 10, 11, 12, 13, 14, 15, 16, 17, 18, 19, 20, 21, 22, 23, 24, 25, 26, 27, 28, 29, 30, 31, 32, 33, 34, 35, 36, 37, 38, 39, 40, 41, 42, 43, 44, 45, 46, 47, 48, 49, 50, 51, 52, 53, 54, 55, 56, 57, 58, 59, 60, 61, 62, 63, 64, 65, 66, 67, 68, 69, 70, 71, 72, 73, 74, 75, 76, 77, 78, 79, 80, 81, 82, 83, 84, 85, 86, 87, 88, 89, 90, 91, 92, 93, 94, 95, 96, 97, 98, 99, 100, 101, 102, 103, 104, 105, 106, 107, 108, 109, 110, 111, 112, 113, 114, 115, 116, 117, 118, 119, 120, 121, 122, 123, 124, 125, 126, 127, 128, 129, 130, 131, 132, 133, 134, 135, 136, 137, 138, 139, 140, 141, 142, 143, 144, 145, 146, 147, 148, 149, 150, 151, 152, 153, 154, 155],
      "LargestImagePixelValue": [905, 826, 857, 789, 871, 789, 992, 865, 811, 799, 777, 1044, 810, 866, 848, 783, 892, 839, 791, 834, 842, 775, 873, 897, 855, 804, 943, 960, 832, 786, 824, 777, 907, 907, 821, 869, 929, 787, 950, 844, 968, 867, 896, 803, 964, 901, 796, 964, 884, 810, 871, 860, 882, 971, 842, 913, 942, 842, 907, 939, 795, 815, 891, 924, 894, 818, 810, 939, 781, 947, 798, 964, 852, 811, 814, 815, 907, 843, 906, 959, 885, 860, 773, 765, 903, 816, 844, 814, 776, 807, 819, 928, 861, 866, 890, 833, 914, 865, 914, 779, 911, 871, 838, 778, 794, 833, 860, 922, 835, 813, 778, 807, 989, 932, 817, 799, 923, 994, 869, 920, 832, 875, 804, 882, 875, 913, 962, 881, 820, 881, 919, 927, 816, 795, 781, 903, 879, 814, 909, 861, 920, 823, 861, 859, 897, 811, 832, 815, 884, 920, 849, 799, 888, 834, 870],
      "WindowCenter": [455.0, 451.0, 453.0, 453.0, 455.0, 452.0, 454.0, 452.0, 451.0, 453.0, 454.0, 457.0, 454.0, 455.0, 453.0, 453.0, 455.0, 453.0, 453.0, 453.0, 452.0, 452.0, 453.0, 452.0, 453.0, 453.0, 454.0, 453.0, 453.0, 451.0, 452.0, 452.0, 452.0, 452.0, 453.0, 453.0, 453.0, 452.0, 455.0, 453.0, 455.0, 453.0, 452.0, 451.0, 452.0, 451.0, 452.0, 453.0, 452.0, 453.0, 453.0, 452.0, 453.0, 453.0, 452.0, 454.0, 453.0, 452.0, 453.0, 452.0, 453.0, 454.0, 454.0, 455.0, 453.0, 451.0, 453.0, 454.0, 453.0, 454.0, 452.0, 454.0, 452.0, 453.0, 454.0, 455.0, 455.0, 455.0, 456.0, 455.0, 452.0, 450.0, 450.0, 450.0, 451.0, 450.0, 451.0, 450.0, 451.0, 452.0, 453.0, 455.0, 452.0, 451.0, 451.0, 451.0, 453.0, 452.0, 452.0, 452.0, 454.0, 454.0, 451.0, 449.0, 448.0, 450.0, 452.0, 455.0, 455.0, 454.0, 455.0, 455.0, 455.0, 453.0, 451.0, 452.0, 452.0, 454.0, 455.0, 453.0, 452.0, 452.0, 452.0, 453.0, 452.0, 452.0, 452.0, 451.0, 451.0, 453.0, 453.0, 453.0, 451.0, 451.0, 452.0, 453.0, 452.0, 452.0, 453.0, 453.0, 453.0, 453.0, 452.0, 452.0, 453.0, 452.0, 452.0, 454.0, 454.0, 453.0, 452.0, 453.0, 454.0, 453.0, 453.0],
      "WindowWidth": [952.0, 946.0, 948.0, 950.0, 952.0, 948.0, 950.0, 946.0, 945.0, 950.0, 950.0, 955.0, 950.0, 952.0, 949.0, 949.0, 953.0, 948.0, 948.0, 948.0, 947.0, 948.0, 949.0, 947.0, 948.0, 949.0, 950.0, 948.0, 948.0, 945.0, 946.0, 947.0, 947.0, 947.0, 948.0, 949.0, 948.0, 947.0, 952.0, 950.0, 952.0, 949.0, 946.0, 945.0, 946.0, 944.0, 947.0, 948.0, 946.0, 948.0, 948.0, 947.0, 948.0, 948.0, 946.0, 950.0, 948.0, 947.0, 948.0, 947.0, 948.0, 950.0, 950.0, 952.0, 948.0, 946.0, 949.0, 949.0, 949.0, 950.0, 948.0, 949.0, 946.0, 949.0, 951.0, 951.0, 952.0, 952.0, 954.0, 951.0, 946.0, 944.0, 942.0, 943.0, 944.0, 943.0, 944.0, 944.0, 946.0, 946.0, 948.0, 951.0, 947.0, 945.0, 944.0, 945.0, 948.0, 947.0, 947.0, 946.0, 950.0, 950.0, 946.0, 942.0, 940.0, 942.0, 946.0, 951.0, 952.0, 952.0, 952.0, 953.0, 952.0, 948.0, 946.0, 947.0, 947.0, 949.0, 952.0, 949.0, 946.0, 947.0, 947.0, 947.0, 946.0, 947.0, 947.0, 945.0, 946.0, 948.0, 948.0, 948.0, 946.0, 945.0, 946.0, 947.0, 946.0, 947.0, 948.0, 948.0, 948.0, 948.0, 946.0, 947.0, 949.0, 946.0, 947.0, 950.0, 949.0, 949.0, 947.0, 949.0, 951.0, 949.0, 948.0]
    },
    "slices": {}
  }
}