{
  "AcquisitionMatrixPE": 64,
  "AcquisitionNumber": 1,
  "AcquisitionTime": "16:38:58.257500",
  "BandwidthPerPixelPhaseEncode": 40.064,
  "BaseResolution": 64,
  "BodyPartExamined": "BRAIN",
  "ConsistencyInfo": "N4_VD13D_LATEST_20130810",
  "ConversionSoftware": "dcm2niix",
  "ConversionSoftwareVersion": "v1.0.20191031",
  "DerivedVendorReportedEchoSpacing": 0.000780002,
  "DeviceSerialNumber": "67007",
  "DwellTime": 5.3e-06,
  "EchoTime": 0.03,
  "EchoTrainLength": 31,
  "EffectiveEchoSpacing": 0.000390001,
  "FlipAngle": 75,
  "ImageOrientationPatientDICOM": [0.999601, 0.0201855, 0.01974, -0.0226841, 0.990467, 0.135869],
  "ImageType": [
    "ORIGINAL",
    "PRIMARY",
    "M",
    "ND",
    "NORM",
    "MOSAIC"
],
  "ImagingFrequency": 123.211,
  "InPlanePhaseEncodingDirectionDICOM": "ROW",
  "InstitutionAddress": "Perth_Drive_100_London_Ontario_CA_N6A_5K8",
  "InstitutionName": "Robarts-CFMM",
  "InstitutionalDepartmentName": "CFMM",
  "MRAcquisitionType": "2D",
  "MagneticFieldStrength": 3,
  "Manufacturer": "Siemens",
  "ManufacturersModelName": "Prisma_fit",
  "Modality": "MR",
  "ParallelReductionFactorInPlane": 2,
  "PartialFourier": 1,
  "PatientPosition": "HFS",
  "PercentPhaseFOV": 100,
  "PhaseEncodingDirection": "i",
  "PhaseEncodingSteps": 63,
  "PhaseResolution": 1,
  "PixelBandwidth": 1475,
  "ProcedureStepDescription": "Owen_Naci",
  "ProtocolName": "Resting_State",
  "PulseSequenceDetails": "%SiemensSeq%_ep2d_bold",
  "ReceiveCoilActiveElements": "HEA;HEP",
  "ReceiveCoilName": "Head_32",
  "ReconMatrixPE": 64,
  "RefLinesPE": 24,
  "RepetitionTime": 2,
  "SAR": 0.0886871,
  "ScanOptions": "FS",
  "ScanningSequence": "EP",
  "SequenceName": "_epfid2d1_64",
  "SequenceVariant": "SK",
  "SeriesDescription": "Resting_State",
  "SeriesNumber": 5,
  "ShimSetting": [5237, -6191, -3843, 344, -21, -75, 14, 13],
  "SliceThickness": 3,
  "SliceTiming": [1.92, 1.86, 1.8, 1.74, 1.68, 1.62, 1.56, 1.5, 1.44, 1.38, 1.32, 1.26, 1.2, 1.14, 1.08, 1.02, 0.96, 0.9, 0.84, 0.78, 0.72, 0.66, 0.6, 0.54, 0.48, 0.42, 0.36, 0.3, 0.24, 0.18, 0.12, 0.06, 0],
  "SoftwareVersions": "syngo_MR_D13D",
  "SpacingBetweenSlices": 3.75,
  "StationName": "AWP67007",
  "TaskName": "rest",
  "TotalReadoutTime": 0.0245701,
  "TxRefAmp": 259.108,
  "dcmmeta_affine": [
    [-2.9988040924072266, -0.06805238127708435, 0.06303481012582779, 97.19085693359375],
    [-0.06055636331439018, 2.9714012145996094, 0.5109841227531433, -81.46173095703125],
    [0.05922010913491249, -0.40760642290115356, 3.7144882678985596, -28.151582717895508],
    [0.0, 0.0, 0.0, 1.0]
],
  "dcmmeta_reorient_transform": [
    [0.0, -1.0, 0.0, 63.0],
    [1.0, 0.0, 0.0, 0.0],
    [0.0, 0.0, 1.0, 0.0],
    [0.0, 0.0, 0.0, 1.0]
],
  "dcmmeta_shape": [64, 64, 33, 256],
  "dcmmeta_slice_dim": 2,
  "dcmmeta_version": 0.6,
  "global": {
    "const": {
      "AcquisitionMatrix": [0, 64, 64, 0],
      "AngioFlag": "N",
      "BitsAllocated": 16,
      "BitsStored": 12,
      "BodyPartExamined": "BRAIN",
      "Columns": 384,
      "EchoNumbers": 1,
      "EchoTime": 30.0,
      "EchoTrainLength": 31,
      "FlipAngle": 75.0,
      "HighBit": 11,
      "ImageOrientationPatient": [0.9996013597255, 0.02018545486823, 0.01974003664388, -0.0226841272627, 0.99046711033283, 0.13586881069354],
      "ImagePositionPatient": [-561.82382725091, -590.84978765865, -128.52303386543],
      "ImageType": [
        "ORIGINAL",
        "PRIMARY",
        "M",
        "ND",
        "NORM",
        "MOSAIC"
],
      "ImagedNucleus": "1H",
      "ImagingFrequency": 123.211101,
      "InPlanePhaseEncodingDirection": "ROW",
      "MRAcquisitionType": "2D",
      "MagneticFieldStrength": 3.0,
      "Manufacturer": "SIEMENS",
      "ManufacturerModelName": "Prisma_fit",
      "Modality": "MR",
      "NumberOfAverages": 1.0,
      "NumberOfPhaseEncodingSteps": 63,
      "PercentPhaseFieldOfView": 100.0,
      "PercentSampling": 100.0,
      "PerformedProcedureStepStartTime": "161631.696000",
      "PhotometricInterpretation": "MONOCHROME2",
      "PixelBandwidth": 1475.0,
      "PixelRepresentation": 0,
      "PixelSpacing": [3.0, 3.0],
      "ProtocolName": "Resting State",
      "RepetitionTime": 2000.0,
      "Rows": 384,
      "SAR": 0.08868706335489,
      "SamplesPerPixel": 1,
      "ScanOptions": "FS",
      "ScanningSequence": "EP",
      "SequenceName": "*epfid2d1_64",
      "SequenceVariant": "SK",
      "SeriesDescription": "Resting State",
      "SeriesNumber": 5,
      "SeriesTime": "163955.289000",
      "SliceLocation": -37.351455526441,
      "SliceThickness": 3.0,
      "SmallestImagePixelValue": 0,
      "SoftwareVersions": "syngo MR D13D",
      "SpacingBetweenSlices": 3.7500000531564,
      "SpecificCharacterSet": "ISO_IR 100",
      "StudyID": "1",
      "StudyTime": "161631.639000",
      "TimeOfLastCalibration": ["123723.000000", "123723.000000"],
      "TransmitCoilName": "Body",
      "VariableFlipAngleFlag": "N",
      "WindowCenterWidthExplanation": "Algo1",
      "dBdt": 0.0},
    "slices": {}
  },
  "time": {
    "samples": {
      "AcquisitionNumber": [1, 2, 3, 4, 5, 6, 7, 8, 9, 10, 11, 12, 13, 14, 15, 16, 17, 18, 19, 20, 21, 22, 23, 24, 25, 26, 27, 28, 29, 30, 31, 32, 33, 34, 35, 36, 37, 38, 39, 40, 41, 42, 43, 44, 45, 46, 47, 48, 49, 50, 51, 52, 53, 54, 55, 56, 57, 58, 59, 60, 61, 62, 63, 64, 65, 66, 67, 68, 69, 70, 71, 72, 73, 74, 75, 76, 77, 78, 79, 80, 81, 82, 83, 84, 85, 86, 87, 88, 89, 90, 91, 92, 93, 94, 95, 96, 97, 98, 99, 100, 101, 102, 103, 104, 105, 106, 107, 108, 109, 110, 111, 112, 113, 114, 115, 116, 117, 118, 119, 120, 121, 122, 123, 124, 125, 126, 127, 128, 129, 130, 131, 132, 133, 134, 135, 136, 137, 138, 139, 140, 141, 142, 143, 144, 145, 146, 147, 148, 149, 150, 151, 152, 153, 154, 155, 156, 157, 158, 159, 160, 161, 162, 163, 164, 165, 166, 167, 168, 169, 170, 171, 172, 173, 174, 175, 176, 177, 178, 179, 180, 181, 182, 183, 184, 185, 186, 187, 188, 189, 190, 191, 192, 193, 194, 195, 196, 197, 198, 199, 200, 201, 202, 203, 204, 205, 206, 207, 208, 209, 210, 211, 212, 213, 214, 215, 216, 217, 218, 219, 220, 221, 222, 223, 224, 225, 226, 227, 228, 229, 230, 231, 232, 233, 234, 235, 236, 237, 238, 239, 240, 241, 242, 243, 244, 245, 246, 247, 248, 249, 250, 251, 252, 253, 254, 255, 256],
      "AcquisitionTime": ["163858.257500", "163900.257500", "163902.257500", "163904.257500", "163906.257500", "163908.257500", "163910.257500", "163912.257500", "163914.257500", "163916.257500", "163918.257500", "163920.257500", "163922.257500", "163924.257500", "163926.257500", "163928.257500", "163930.257500", "163932.257500", "163934.257500", "163936.257500", "163938.257500", "163940.257500", "163942.257500", "163944.257500", "163946.257500", "163948.257500", "163950.257500", "163952.257500", "163954.257500", "163956.257500", "163958.257500", "164000.257500", "164002.257500", "164004.257500", "164006.257500", "164008.257500", "164010.257500", "164012.257500", "164014.257500", "164016.257500", "164018.257500", "164020.257500", "164022.257500", "164024.257500", "164026.257500", "164028.257500", "164030.257500", "164032.257500", "164034.257500", "164036.257500", "164038.257500", "164040.257500", "164042.257500", "164044.257500", "164046.257500", "164048.257500", "164050.257500", "164052.257500", "164054.257500", "164056.257500", "164058.257500", "164100.257500", "164102.257500", "164104.257500", "164106.257500", "164108.257500", "164110.257500", "164112.257500", "164114.257500", "164116.257500", "164118.257500", "164120.257500", "164122.257500", "164124.257500", "164126.257500", "164128.257500", "164130.257500", "164132.257500", "164134.257500", "164136.257500", "164138.257500", "164140.257500", "164142.257500", "164144.257500", "164146.257500", "164148.257500", "164150.257500", "164152.257500", "164154.257500", "164156.257500", "164158.257500", "164200.257500", "164202.257500", "164204.257500", "164206.257500", "164208.257500", "164210.257500", "164212.257500", "164214.257500", "164216.257500", "164218.257500", "164220.257500", "164222.257500", "164224.257500", "164226.257500", "164228.257500", "164230.257500", "164232.257500", "164234.257500", "164236.257500", "164238.257500", "164240.257500", "164242.257500", "164244.257500", "164246.257500", "164248.257500", "164250.257500", "164252.257500", "164254.257500", "164256.257500", "164258.257500", "164300.257500", "164302.257500", "164304.257500", "164306.257500", "164308.257500", "164310.257500", "164312.257500", "164314.257500", "164316.257500", "164318.257500", "164320.257500", "164322.257500", "164324.257500", "164326.257500", "164328.257500", "164330.257500", "164332.257500", "164334.257500", "164336.257500", "164338.257500", "164340.257500", "164342.257500", "164344.257500", "164346.257500", "164348.257500", "164350.257500", "164352.257500", "164354.257500", "164356.257500", "164358.257500", "164400.257500", "164402.257500", "164404.257500", "164406.257500", "164408.257500", "164410.257500", "164412.257500", "164414.257500", "164416.257500", "164418.257500", "164420.257500", "164422.257500", "164424.257500", "164426.257500", "164428.257500", "164430.257500", "164432.257500", "164434.257500", "164436.257500", "164438.257500", "164440.257500", "164442.257500", "164444.257500", "164446.257500", "164448.257500", "164450.257500", "164452.257500", "164454.257500", "164456.257500", "164458.257500", "164500.257500", "164502.257500", "164504.257500", "164506.257500", "164508.257500", "164510.257500", "164512.257500", "164514.257500", "164516.257500", "164518.257500", "164520.257500", "164522.257500", "164524.257500", "164526.257500", "164528.257500", "164530.257500", "164532.257500", "164534.257500", "164536.257500", "164538.257500", "164540.257500", "164542.257500", "164544.257500", "164546.257500", "164548.257500", "164550.257500", "164552.257500", "164554.257500", "164556.257500", "164558.257500", "164600.257500", "164602.257500", "164604.260000", "164606.260000", "164608.260000", "164610.260000", "164612.260000", "164614.260000", "164616.260000", "164618.260000", "164620.260000", "164622.260000", "164624.260000", "164626.260000", "164628.260000", "164630.260000", "164632.260000", "164634.260000", "164636.260000", "164638.260000", "164640.260000", "164642.260000", "164644.260000", "164646.260000", "164648.260000", "164650.260000", "164652.260000", "164654.260000", "164656.260000", "164658.260000", "164700.260000", "164702.260000", "164704.260000", "164706.260000", "164708.260000", "164710.260000", "164712.260000", "164714.260000", "164716.260000", "164718.260000", "164720.260000", "164722.260000", "164724.260000", "164726.260000", "164728.260000"],
      "ContentTime": ["163955.293000", "163955.296000", "163955.299000", "163955.302000", "163955.304000", "163955.313000", "163955.315000", "163955.318000", "163955.320000", "163955.323000", "163955.326000", "163955.329000", "163955.331000", "163955.334000", "163955.337000", "163955.345000", "163955.347000", "163955.350000", "163955.352000", "163955.355000", "163955.358000", "163955.361000", "163955.363000", "163955.366000", "163955.369000", "163955.372000", "163955.374000", "163955.377000", "163955.380000", "164035.285000", "164035.288000", "164035.290000", "164035.293000", "164035.296000", "164035.299000", "164035.301000", "164035.304000", "164035.307000", "164035.310000", "164035.313000", "164035.315000", "164035.318000", "164035.321000", "164035.324000", "164035.327000", "164035.329000", "164035.332000", "164035.335000", "164035.338000", "164115.286000", "164115.289000", "164115.291000", "164115.294000", "164115.297000", "164115.300000", "164115.303000", "164115.305000", "164115.308000", "164115.311000", "164115.314000", "164115.317000", "164115.320000", "164115.323000", "164115.326000", "164115.329000", "164115.331000", "164115.334000", "164115.337000", "164115.340000", "164155.285000", "164155.288000", "164155.291000", "164155.294000", "164155.297000", "164155.299000", "164155.302000", "164155.305000", "164155.307000", "164155.310000", "164155.313000", "164155.316000", "164155.318000", "164155.321000", "164155.324000", "164155.327000", "164155.329000", "164155.332000", "164155.335000", "164155.338000", "164235.287000", "164235.290000", "164235.293000", "164235.296000", "164235.298000", "164235.301000", "164235.304000", "164235.307000", "164235.310000", "164235.313000", "164235.315000", "164235.318000", "164235.321000", "164235.324000", "164235.327000", "164235.330000", "164235.332000", "164235.335000", "164235.338000", "164235.341000", "164315.287000", "164315.290000", "164315.293000", "164315.296000", "164315.298000", "164315.301000", "164315.303000", "164315.306000", "164315.309000", "164315.311000", "164315.314000", "164315.317000", "164315.320000", "164315.322000", "164315.325000", "164315.328000", "164315.331000", "164315.334000", "164315.337000", "164315.339000", "164355.287000", "164355.299000", "164355.302000", "164355.305000", "164355.307000", "164355.310000", "164355.313000", "164355.315000", "164355.318000", "164355.321000", "164355.324000", "164355.327000", "164355.330000", "164355.332000", "164355.335000", "164355.338000", "164355.341000", "164355.344000", "164355.347000", "164355.357000", "164435.287000", "164435.290000", "164435.293000", "164435.296000", "164435.298000", "164435.301000", "164435.304000", "164435.307000", "164435.310000", "164435.312000", "164435.315000", "164435.318000", "164435.321000", "164435.324000", "164435.327000", "164435.329000", "164435.332000", "164435.335000", "164435.338000", "164435.341000", "164515.286000", "164515.289000", "164515.292000", "164515.294000", "164515.297000", "164515.300000", "164515.303000", "164515.305000", "164515.308000", "164515.311000", "164515.313000", "164515.316000", "164515.319000", "164515.322000", "164515.324000", "164515.327000", "164515.330000", "164515.333000", "164515.336000", "164515.339000", "164555.287000", "164555.290000", "164555.293000", "164555.296000", "164555.298000", "164555.301000", "164555.304000", "164555.306000", "164555.309000", "164555.311000", "164555.314000", "164555.317000", "164555.319000", "164555.322000", "164555.325000", "164555.327000", "164555.330000", "164555.333000", "164555.335000", "164555.338000", "164615.287000", "164615.290000", "164615.293000", "164615.295000", "164615.298000", "164615.300000", "164615.303000", "164615.306000", "164615.308000", "164615.311000", "164655.287000", "164655.290000", "164655.293000", "164655.295000", "164655.298000", "164655.301000", "164655.303000", "164655.306000", "164655.308000", "164655.311000", "164655.314000", "164655.316000", "164655.319000", "164655.321000", "164655.324000", "164655.327000", "164655.329000", "164655.332000", "164655.334000", "164655.337000", "164728.375000", "164728.379000", "164728.381000", "164728.384000", "164728.387000", "164728.390000", "164728.392000", "164728.395000", "164728.398000", "164728.400000", "164728.403000", "164728.406000", "164728.409000", "164728.412000", "164728.418000", "164728.422000", "164728.426000"],
      "InstanceCreationTime": ["163955.293000", "163955.296000", "163955.299000", "163955.302000", "163955.304000", "163955.313000", "163955.315000", "163955.318000", "163955.320000", "163955.323000", "163955.326000", "163955.329000", "163955.331000", "163955.334000", "163955.337000", "163955.345000", "163955.347000", "163955.350000", "163955.352000", "163955.355000", "163955.358000", "163955.361000", "163955.363000", "163955.366000", "163955.369000", "163955.372000", "163955.374000", "163955.377000", "163955.380000", "164035.285000", "164035.288000", "164035.290000", "164035.293000", "164035.296000", "164035.299000", "164035.301000", "164035.304000", "164035.307000", "164035.310000", "164035.313000", "164035.315000", "164035.318000", "164035.321000", "164035.324000", "164035.327000", "164035.329000", "164035.332000", "164035.335000", "164035.338000", "164115.286000", "164115.289000", "164115.291000", "164115.294000", "164115.297000", "164115.300000", "164115.303000", "164115.305000", "164115.308000", "164115.311000", "164115.314000", "164115.317000", "164115.320000", "164115.323000", "164115.326000", "164115.329000", "164115.331000", "164115.334000", "164115.337000", "164115.340000", "164155.285000", "164155.288000", "164155.291000", "164155.294000", "164155.297000", "164155.299000", "164155.302000", "164155.305000", "164155.307000", "164155.310000", "164155.313000", "164155.316000", "164155.318000", "164155.321000", "164155.324000", "164155.327000", "164155.329000", "164155.332000", "164155.335000", "164155.338000", "164235.287000", "164235.290000", "164235.293000", "164235.296000", "164235.298000", "164235.301000", "164235.304000", "164235.307000", "164235.310000", "164235.313000", "164235.315000", "164235.318000", "164235.321000", "164235.324000", "164235.327000", "164235.330000", "164235.332000", "164235.335000", "164235.338000", "164235.341000", "164315.287000", "164315.290000", "164315.293000", "164315.296000", "164315.298000", "164315.301000", "164315.303000", "164315.306000", "164315.309000", "164315.311000", "164315.314000", "164315.317000", "164315.320000", "164315.322000", "164315.325000", "164315.328000", "164315.331000", "164315.334000", "164315.337000", "164315.339000", "164355.287000", "164355.299000", "164355.302000", "164355.305000", "164355.307000", "164355.310000", "164355.313000", "164355.315000", "164355.318000", "164355.321000", "164355.324000", "164355.327000", "164355.330000", "164355.332000", "164355.335000", "164355.338000", "164355.341000", "164355.344000", "164355.347000", "164355.357000", "164435.287000", "164435.290000", "164435.293000", "164435.296000", "164435.298000", "164435.301000", "164435.304000", "164435.307000", "164435.310000", "164435.312000", "164435.315000", "164435.318000", "164435.321000", "164435.324000", "164435.327000", "164435.329000", "164435.332000", "164435.335000", "164435.338000", "164435.341000", "164515.286000", "164515.289000", "164515.292000", "164515.294000", "164515.297000", "164515.300000", "164515.303000", "164515.305000", "164515.308000", "164515.311000", "164515.313000", "164515.316000", "164515.319000", "164515.322000", "164515.324000", "164515.327000", "164515.330000", "164515.333000", "164515.336000", "164515.339000", "164555.287000", "164555.290000", "164555.293000", "164555.296000", "164555.298000", "164555.301000", "164555.304000", "164555.306000", "164555.309000", "164555.311000", "164555.314000", "164555.317000", "164555.319000", "164555.322000", "164555.325000", "164555.327000", "164555.330000", "164555.333000", "164555.335000", "164555.338000", "164615.287000", "164615.290000", "164615.293000", "164615.295000", "164615.298000", "164615.300000", "164615.303000", "164615.306000", "164615.308000", "164615.311000", "164655.287000", "164655.290000", "164655.293000", "164655.295000", "164655.298000", "164655.301000", "164655.303000", "164655.306000", "164655.308000", "164655.311000", "164655.314000", "164655.316000", "164655.319000", "164655.321000", "164655.324000", "164655.327000", "164655.329000", "164655.332000", "164655.334000", "164655.337000", "164728.375000", "164728.379000", "164728.381000", "164728.384000", "164728.387000", "164728.390000", "164728.392000", "164728.395000", "164728.398000", "164728.400000", "164728.403000", "164728.406000", "164728.409000", "164728.412000", "164728.418000", "164728.422000", "164728.426000"],
      "InstanceNumber": [1, 2, 3, 4, 5, 6, 7, 8, 9, 10, 11, 12, 13, 14, 15, 16, 17, 18, 19, 20, 21, 22, 23, 24, 25, 26, 27, 28, 29, 30, 31, 32, 33, 34, 35, 36, 37, 38, 39, 40, 41, 42, 43, 44, 45, 46, 47, 48, 49, 50, 51, 52, 53, 54, 55, 56, 57, 58, 59, 60, 61, 62, 63, 64, 65, 66, 67, 68, 69, 70, 71, 72, 73, 74, 75, 76, 77, 78, 79, 80, 81, 82, 83, 84, 85, 86, 87, 88, 89, 90, 91, 92, 93, 94, 95, 96, 97, 98, 99, 100, 101, 102, 103, 104, 105, 106, 107, 108, 109, 110, 111, 112, 113, 114, 115, 116, 117, 118, 119, 120, 121, 122, 123, 124, 125, 126, 127, 128, 129, 130, 131, 132, 133, 134, 135, 136, 137, 138, 139, 140, 141, 142, 143, 144, 145, 146, 147, 148, 149, 150, 151, 152, 153, 154, 155, 156, 157, 158, 159, 160, 161, 162, 163, 164, 165, 166, 167, 168, 169, 170, 171, 172, 173, 174, 175, 176, 177, 178, 179, 180, 181, 182, 183, 184, 185, 186, 187, 188, 189, 190, 191, 192, 193, 194, 195, 196, 197, 198, 199, 200, 201, 202, 203, 204, 205, 206, 207, 208, 209, 210, 211, 212, 213, 214, 215, 216, 217, 218, 219, 220, 221, 222, 223, 224, 225, 226, 227, 228, 229, 230, 231, 232, 233, 234, 235, 236, 237, 238, 239, 240, 241, 242, 243, 244, 245, 246, 247, 248, 249, 250, 251, 252, 253, 254, 255, 256],
      "LargestImagePixelValue": [916, 799, 801, 821, 787, 896, 788, 868, 923, 784, 881, 768, 796, 901, 796, 794, 926, 858, 785, 972, 777, 937, 1004, 779, 941, 783, 933, 763, 925, 760, 891, 772, 861, 765, 800, 963, 760, 886, 780, 780, 911, 848, 808, 902, 786, 930, 855, 778, 840, 1000, 786, 811, 801, 787, 830, 970, 876, 909, 768, 794, 947, 781, 943, 773, 956, 796, 905, 774, 915, 785, 926, 791, 864, 785, 925, 777, 922, 875, 880, 815, 875, 830, 789, 831, 782, 883, 829, 798, 969, 813, 864, 862, 781, 785, 944, 825, 861, 934, 769, 843, 1040, 799, 936, 768, 877, 833, 779, 783, 861, 783, 938, 776, 844, 877, 768, 853, 840, 795, 895, 841, 902, 776, 796, 920, 889, 867, 790, 921, 870, 792, 826, 810, 802, 880, 773, 869, 825, 909, 758, 810, 853, 784, 829, 881, 902, 938, 837, 815, 855, 783, 807, 939, 829, 798, 863, 785, 777, 911, 795, 814, 852, 790, 788, 980, 784, 776, 889, 802, 851, 846, 807, 772, 961, 775, 903, 920, 808, 834, 957, 812, 802, 903, 772, 789, 797, 922, 858, 885, 809, 852, 819, 766, 791, 807, 787, 841, 1031, 831, 848, 847, 785, 809, 990, 851, 834, 873, 812, 813, 903, 794, 780, 928, 845, 798, 808, 829, 775, 911, 824, 790, 795, 927, 885, 804, 936, 856, 787, 828, 787, 876, 784, 855, 920, 871, 794, 870, 907, 880, 800, 875, 793, 808, 846, 783, 909, 863, 838, 932, 796, 803, 875, 781, 801, 854, 873, 776],
      "WindowCenter": [440.0, 438.0, 439.0, 439.0, 439.0, 441.0, 440.0, 442.0, 442.0, 441.0, 443.0, 441.0, 442.0, 444.0, 443.0, 444.0, 447.0, 445.0, 445.0, 447.0, 445.0, 446.0, 444.0, 441.0, 442.0, 441.0, 443.0, 441.0, 443.0, 441.0, 443.0, 442.0, 443.0, 442.0, 443.0, 446.0, 443.0, 445.0, 443.0, 444.0, 445.0, 444.0, 442.0, 444.0, 443.0, 445.0, 443.0, 443.0, 444.0, 445.0, 442.0, 443.0, 442.0, 443.0, 444.0, 445.0, 444.0, 444.0, 443.0, 443.0, 446.0, 443.0, 446.0, 443.0, 446.0, 444.0, 445.0, 443.0, 446.0, 443.0, 445.0, 443.0, 444.0, 443.0, 445.0, 443.0, 444.0, 443.0, 444.0, 443.0, 444.0, 443.0, 443.0, 443.0, 443.0, 444.0, 444.0, 443.0, 445.0, 443.0, 444.0, 444.0, 444.0, 444.0, 446.0, 445.0, 444.0, 445.0, 443.0, 445.0, 447.0, 443.0, 444.0, 441.0, 443.0, 442.0, 442.0, 442.0, 444.0, 442.0, 444.0, 442.0, 443.0, 443.0, 442.0, 443.0, 443.0, 443.0, 444.0, 442.0, 443.0, 442.0, 444.0, 446.0, 444.0, 445.0, 444.0, 447.0, 445.0, 444.0, 444.0, 443.0, 443.0, 445.0, 444.0, 445.0, 443.0, 444.0, 443.0, 445.0, 445.0, 445.0, 446.0, 445.0, 444.0, 443.0, 442.0, 442.0, 443.0, 443.0, 443.0, 444.0, 443.0, 442.0, 444.0, 443.0, 443.0, 444.0, 443.0, 443.0, 444.0, 444.0, 443.0, 445.0, 443.0, 443.0, 445.0, 444.0, 444.0, 443.0, 443.0, 443.0, 446.0, 444.0, 444.0, 444.0, 443.0, 444.0, 445.0, 443.0, 442.0, 444.0, 443.0, 443.0, 443.0, 445.0, 444.0, 444.0, 443.0, 443.0, 442.0, 443.0, 443.0, 443.0, 445.0, 445.0, 446.0, 442.0, 442.0, 443.0, 443.0, 443.0, 444.0, 443.0, 443.0, 444.0, 444.0, 442.0, 444.0, 442.0, 442.0, 444.0, 443.0, 442.0, 442.0, 443.0, 443.0, 444.0, 442.0, 443.0, 443.0, 443.0, 443.0, 442.0, 445.0, 443.0, 442.0, 443.0, 442.0, 444.0, 443.0, 444.0, 444.0, 443.0, 442.0, 443.0, 444.0, 444.0, 442.0, 443.0, 442.0, 444.0, 445.0, 444.0, 445.0, 444.0, 444.0, 444.0, 442.0, 442.0, 443.0, 442.0, 443.0, 444.0, 443.0, 443.0],
      "WindowWidth": [923.0, 919.0, 921.0, 920.0, 921.0, 924.0, 923.0, 926.0, 927.0, 925.0, 927.0, 925.0, 927.0, 930.0, 929.0, 930.0, 935.0, 932.0, 932.0, 935.0, 932.0, 933.0, 929.0, 925.0, 927.0, 924.0, 928.0, 925.0, 927.0, 925.0, 929.0, 927.0, 929.0, 927.0, 929.0, 933.0, 928.0, 931.0, 929.0, 930.0, 932.0, 930.0, 927.0, 930.0, 928.0, 931.0, 928.0, 929.0, 930.0, 932.0, 926.0, 928.0, 928.0, 929.0, 930.0, 932.0, 930.0, 930.0, 928.0, 929.0, 933.0, 929.0, 933.0, 930.0, 934.0, 930.0, 932.0, 929.0, 933.0, 929.0, 932.0, 928.0, 931.0, 928.0, 932.0, 929.0, 930.0, 928.0, 930.0, 929.0, 929.0, 928.0, 928.0, 928.0, 929.0, 931.0, 930.0, 929.0, 932.0, 929.0, 930.0, 931.0, 930.0, 931.0, 934.0, 932.0, 931.0, 932.0, 929.0, 933.0, 935.0, 928.0, 930.0, 925.0, 928.0, 926.0, 926.0, 927.0, 930.0, 927.0, 930.0, 927.0, 928.0, 928.0, 927.0, 928.0, 928.0, 929.0, 930.0, 927.0, 927.0, 927.0, 930.0, 933.0, 931.0, 931.0, 930.0, 935.0, 932.0, 930.0, 930.0, 929.0, 929.0, 932.0, 931.0, 931.0, 929.0, 930.0, 929.0, 931.0, 931.0, 932.0, 934.0, 932.0, 930.0, 929.0, 927.0, 927.0, 928.0, 928.0, 929.0, 930.0, 928.0, 927.0, 929.0, 928.0, 929.0, 930.0, 929.0, 929.0, 930.0, 930.0, 929.0, 932.0, 928.0, 930.0, 932.0, 931.0, 929.0, 929.0, 929.0, 929.0, 934.0, 930.0, 931.0, 930.0, 929.0, 930.0, 932.0, 928.0, 927.0, 929.0, 928.0, 929.0, 930.0, 932.0, 930.0, 931.0, 928.0, 928.0, 927.0, 928.0, 928.0, 930.0, 932.0, 932.0, 933.0, 927.0, 927.0, 928.0, 928.0, 929.0, 930.0, 928.0, 929.0, 930.0, 930.0, 927.0, 929.0, 926.0, 928.0, 930.0, 929.0, 927.0, 927.0, 929.0, 928.0, 930.0, 927.0, 928.0, 929.0, 929.0, 929.0, 927.0, 931.0, 928.0, 927.0, 928.0, 927.0, 929.0, 928.0, 930.0, 929.0, 928.0, 926.0, 929.0, 929.0, 929.0, 926.0, 929.0, 928.0, 930.0, 931.0, 931.0, 932.0, 930.0, 929.0, 930.0, 928.0, 926.0, 928.0, 928.0, 928.0, 929.0, 928.0, 928.0]
    },
    "slices": {}
  }
}