{
  "AcquisitionMatrixPE": 64,
  "AcquisitionNumber": 1,
  "AcquisitionTime": "16:40:53.365000",
  "BandwidthPerPixelPhaseEncode": 40.064,
  "BaseResolution": 64,
  "BodyPartExamined": "BRAIN",
  "ConsistencyInfo": "N4_VD13D_LATEST_20130810",
  "ConversionSoftware": "dcm2niix",
  "ConversionSoftwareVersion": "v1.0.20191031",
  "DerivedVendorReportedEchoSpacing": 0.000780002,
  "DeviceSerialNumber": "67007",
  "DwellTime": 5.3e-06,
  "EchoTime": 0.03,
  "EchoTrainLength": 31,
  "EffectiveEchoSpacing": 0.000390001,
  "FlipAngle": 75,
  "ImageOrientationPatientDICOM": [0.999976, -0.00545748, -0.00416111, 0.00523591, 0.998658, -0.0515173],
  "ImageType": [
    "ORIGINAL",
    "PRIMARY",
    "M",
    "ND",
    "NORM",
    "MOSAIC"
],
  "ImagingFrequency": 123.211,
  "InPlanePhaseEncodingDirectionDICOM": "ROW",
  "InstitutionAddress": "Perth_Drive_100_London_Ontario_CA_N6A_5K8",
  "InstitutionName": "Robarts-CFMM",
  "InstitutionalDepartmentName": "CFMM",
  "MRAcquisitionType": "2D",
  "MagneticFieldStrength": 3,
  "Manufacturer": "Siemens",
  "ManufacturersModelName": "Prisma_fit",
  "Modality": "MR",
  "ParallelReductionFactorInPlane": 2,
  "PartialFourier": 1,
  "PatientPosition": "HFS",
  "PercentPhaseFOV": 100,
  "PhaseEncodingDirection": "i",
  "PhaseEncodingSteps": 63,
  "PhaseResolution": 1,
  "PixelBandwidth": 1475,
  "ProcedureStepDescription": "Owen_Naci",
  "ProtocolName": "Resting_State",
  "PulseSequenceDetails": "%SiemensSeq%_ep2d_bold",
  "ReceiveCoilActiveElements": "HEA;HEP",
  "ReceiveCoilName": "Head_32",
  "ReconMatrixPE": 64,
  "RefLinesPE": 24,
  "RepetitionTime": 2,
  "SAR": 0.0815641,
  "ScanOptions": "FS",
  "ScanningSequence": "EP",
  "SequenceName": "_epfid2d1_64",
  "SequenceVariant": "SK",
  "SeriesDescription": "Resting_State",
  "SeriesNumber": 4,
  "ShimSetting": [5239, -6199, -3811, 375, 54, -181, 73, 34],
  "SliceThickness": 3,
  "SliceTiming": [1.92, 1.86, 1.8, 1.74, 1.68, 1.62, 1.56, 1.5, 1.44, 1.38, 1.32, 1.26, 1.2, 1.14, 1.08, 1.02, 0.96, 0.9, 0.84, 0.78, 0.72, 0.66, 0.6, 0.54, 0.48, 0.42, 0.36, 0.3, 0.24, 0.18, 0.12, 0.06, 0],
  "SoftwareVersions": "syngo_MR_D13D",
  "SpacingBetweenSlices": 3.75,
  "StationName": "AWP67007",
  "TaskName": "rest",
  "TotalReadoutTime": 0.0245701,
  "TxRefAmp": 277.962,
  "dcmmeta_affine": [
    [-2.999929428100586, 0.01570773869752884, -0.016637537628412247, 87.11847686767578],
    [0.01637244038283825, 2.9959750175476074, -0.1931036412715912, -77.91716766357422],
    [-0.012483314611017704, 0.1545519083738327, 3.744987964630127, -41.56442642211914],
    [0.0, 0.0, 0.0, 1.0]
],
  "dcmmeta_reorient_transform": [
    [0.0, -1.0, 0.0, 63.0],
    [1.0, 0.0, 0.0, 0.0],
    [0.0, 0.0, 1.0, 0.0],
    [0.0, 0.0, 0.0, 1.0]
],
  "dcmmeta_shape": [64, 64, 33, 256],
  "dcmmeta_slice_dim": 2,
  "dcmmeta_version": 0.6,
  "global": {
    "const": {
      "AcquisitionMatrix": [0, 64, 64, 0],
      "AngioFlag": "N",
      "BitsAllocated": 16,
      "BitsStored": 12,
      "BodyPartExamined": "BRAIN",
      "Columns": 384,
      "EchoNumbers": 1,
      "EchoTime": 30.0,
      "EchoTrainLength": 31,
      "FlipAngle": 75.0,
      "HighBit": 11,
      "ImageOrientationPatient": [0.99997645028052, -0.0054574802988, -0.0041611048006, 0.00523591282566, 0.99865837642263, -0.0515173021207],
      "ImagePositionPatient": [-570.61000051622, -587.56569553745, -5.1020205112361],
      "ImageType": [
        "ORIGINAL",
        "PRIMARY",
        "M",
        "ND",
        "NORM",
        "MOSAIC"
],
      "ImagedNucleus": "1H",
      "ImagingFrequency": 123.211238,
      "InPlanePhaseEncodingDirection": "ROW",
      "MRAcquisitionType": "2D",
      "MagneticFieldStrength": 3.0,
      "Manufacturer": "SIEMENS",
      "ManufacturerModelName": "Prisma_fit",
      "Modality": "MR",
      "NumberOfAverages": 1.0,
      "NumberOfPhaseEncodingSteps": 63,
      "PercentPhaseFieldOfView": 100.0,
      "PercentSampling": 100.0,
      "PerformedProcedureStepStartTime": "154836.213000",
      "PhotometricInterpretation": "MONOCHROME2",
      "PixelBandwidth": 1475.0,
      "PixelRepresentation": 0,
      "PixelSpacing": [3.0, 3.0],
      "ProtocolName": "Resting State",
      "RepetitionTime": 2000.0,
      "Rows": 384,
      "SAR": 0.08156405098741,
      "SamplesPerPixel": 1,
      "ScanOptions": "FS",
      "ScanningSequence": "EP",
      "SequenceName": "*epfid2d1_64",
      "SequenceVariant": "SK",
      "SeriesDescription": "Resting State",
      "SeriesNumber": 4,
      "SeriesTime": "164117.601000",
      "SliceLocation": -37.883098692512,
      "SliceThickness": 3.0,
      "SmallestImagePixelValue": 0,
      "SoftwareVersions": "syngo MR D13D",
      "SpacingBetweenSlices": 3.7500000906697,
      "SpecificCharacterSet": "ISO_IR 100",
      "StudyID": "1",
      "StudyTime": "154836.109000",
      "TimeOfLastCalibration": ["123723.000000", "123723.000000"],
      "TransmitCoilName": "Body",
      "VariableFlipAngleFlag": "N",
      "WindowCenterWidthExplanation": "Algo1",
      "dBdt": 0.0},
    "slices": {}
  },
  "time": {
    "samples": {
      "AcquisitionNumber": [1, 2, 3, 4, 5, 6, 7, 8, 9, 10, 11, 12, 13, 14, 15, 16, 17, 18, 19, 20, 21, 22, 23, 24, 25, 26, 27, 28, 29, 30, 31, 32, 33, 34, 35, 36, 37, 38, 39, 40, 41, 42, 43, 44, 45, 46, 47, 48, 49, 50, 51, 52, 53, 54, 55, 56, 57, 58, 59, 60, 61, 62, 63, 64, 65, 66, 67, 68, 69, 70, 71, 72, 73, 74, 75, 76, 77, 78, 79, 80, 81, 82, 83, 84, 85, 86, 87, 88, 89, 90, 91, 92, 93, 94, 95, 96, 97, 98, 99, 100, 101, 102, 103, 104, 105, 106, 107, 108, 109, 110, 111, 112, 113, 114, 115, 116, 117, 118, 119, 120, 121, 122, 123, 124, 125, 126, 127, 128, 129, 130, 131, 132, 133, 134, 135, 136, 137, 138, 139, 140, 141, 142, 143, 144, 145, 146, 147, 148, 149, 150, 151, 152, 153, 154, 155, 156, 157, 158, 159, 160, 161, 162, 163, 164, 165, 166, 167, 168, 169, 170, 171, 172, 173, 174, 175, 176, 177, 178, 179, 180, 181, 182, 183, 184, 185, 186, 187, 188, 189, 190, 191, 192, 193, 194, 195, 196, 197, 198, 199, 200, 201, 202, 203, 204, 205, 206, 207, 208, 209, 210, 211, 212, 213, 214, 215, 216, 217, 218, 219, 220, 221, 222, 223, 224, 225, 226, 227, 228, 229, 230, 231, 232, 233, 234, 235, 236, 237, 238, 239, 240, 241, 242, 243, 244, 245, 246, 247, 248, 249, 250, 251, 252, 253, 254, 255, 256],
      "AcquisitionTime": ["164053.365000", "164055.365000", "164057.365000", "164059.365000", "164101.365000", "164103.365000", "164105.365000", "164107.365000", "164109.365000", "164111.365000", "164113.365000", "164115.365000", "164117.365000", "164119.365000", "164121.365000", "164123.365000", "164125.365000", "164127.365000", "164129.365000", "164131.365000", "164133.365000", "164135.365000", "164137.365000", "164139.365000", "164141.365000", "164143.365000", "164145.365000", "164147.365000", "164149.365000", "164151.365000", "164153.365000", "164155.365000", "164157.365000", "164159.365000", "164201.365000", "164203.365000", "164205.365000", "164207.365000", "164209.365000", "164211.365000", "164213.365000", "164215.365000", "164217.365000", "164219.365000", "164221.365000", "164223.365000", "164225.365000", "164227.365000", "164229.365000", "164231.365000", "164233.365000", "164235.365000", "164237.365000", "164239.365000", "164241.365000", "164243.365000", "164245.365000", "164247.365000", "164249.365000", "164251.365000", "164253.365000", "164255.365000", "164257.365000", "164259.365000", "164301.365000", "164303.365000", "164305.365000", "164307.365000", "164309.365000", "164311.365000", "164313.365000", "164315.365000", "164317.365000", "164319.365000", "164321.365000", "164323.365000", "164325.365000", "164327.365000", "164329.365000", "164331.365000", "164333.365000", "164335.365000", "164337.365000", "164339.365000", "164341.365000", "164343.365000", "164345.365000", "164347.365000", "164349.365000", "164351.365000", "164353.365000", "164355.365000", "164357.365000", "164359.365000", "164401.365000", "164403.365000", "164405.365000", "164407.365000", "164409.365000", "164411.365000", "164413.365000", "164415.365000", "164417.365000", "164419.365000", "164421.365000", "164423.365000", "164425.365000", "164427.365000", "164429.365000", "164431.365000", "164433.365000", "164435.365000", "164437.365000", "164439.365000", "164441.365000", "164443.365000", "164445.365000", "164447.365000", "164449.365000", "164451.365000", "164453.365000", "164455.365000", "164457.365000", "164459.365000", "164501.365000", "164503.365000", "164505.365000", "164507.365000", "164509.365000", "164511.365000", "164513.365000", "164515.365000", "164517.365000", "164519.365000", "164521.365000", "164523.365000", "164525.365000", "164527.365000", "164529.365000", "164531.365000", "164533.365000", "164535.365000", "164537.365000", "164539.365000", "164541.365000", "164543.365000", "164545.365000", "164547.365000", "164549.365000", "164551.365000", "164553.365000", "164555.365000", "164557.365000", "164559.365000", "164601.365000", "164603.365000", "164605.365000", "164607.367500", "164609.367500", "164611.367500", "164613.367500", "164615.367500", "164617.367500", "164619.367500", "164621.367500", "164623.367500", "164625.367500", "164627.367500", "164629.367500", "164631.367500", "164633.367500", "164635.367500", "164637.367500", "164639.367500", "164641.367500", "164643.367500", "164645.367500", "164647.367500", "164649.367500", "164651.367500", "164653.367500", "164655.367500", "164657.367500", "164659.367500", "164701.367500", "164703.367500", "164705.367500", "164707.367500", "164709.367500", "164711.367500", "164713.367500", "164715.367500", "164717.367500", "164719.367500", "164721.367500", "164723.367500", "164725.367500", "164727.367500", "164729.367500", "164731.367500", "164733.367500", "164735.367500", "164737.367500", "164739.367500", "164741.367500", "164743.367500", "164745.367500", "164747.367500", "164749.367500", "164751.367500", "164753.367500", "164755.367500", "164757.367500", "164759.367500", "164801.367500", "164803.367500", "164805.367500", "164807.367500", "164809.367500", "164811.367500", "164813.367500", "164815.367500", "164817.367500", "164819.367500", "164821.367500", "164823.367500", "164825.367500", "164827.367500", "164829.367500", "164831.367500", "164833.367500", "164835.367500", "164837.367500", "164839.367500", "164841.367500", "164843.367500", "164845.367500", "164847.367500", "164849.367500", "164851.367500", "164853.367500", "164855.367500", "164857.367500", "164859.367500", "164901.367500", "164903.367500", "164905.367500", "164907.367500", "164909.367500", "164911.367500", "164913.367500", "164915.367500", "164917.367500", "164919.367500", "164921.367500", "164923.367500"],
      "ContentTime": ["164117.605000", "164117.615000", "164117.618000", "164117.621000", "164117.624000", "164117.627000", "164117.629000", "164117.632000", "164117.635000", "164117.638000", "164117.641000", "164157.599000", "164157.602000", "164157.605000", "164157.608000", "164157.612000", "164157.615000", "164157.617000", "164157.620000", "164157.623000", "164157.626000", "164157.628000", "164157.631000", "164157.634000", "164157.637000", "164157.640000", "164157.642000", "164157.645000", "164157.648000", "164157.651000", "164157.654000", "164237.599000", "164237.602000", "164237.605000", "164237.612000", "164237.615000", "164237.618000", "164237.621000", "164237.624000", "164237.627000", "164237.629000", "164237.632000", "164237.635000", "164237.638000", "164237.641000", "164237.644000", "164237.647000", "164237.649000", "164237.653000", "164237.655000", "164237.658000", "164317.600000", "164317.603000", "164317.606000", "164317.609000", "164317.612000", "164317.614000", "164317.617000", "164317.620000", "164317.623000", "164317.626000", "164317.628000", "164317.631000", "164317.634000", "164317.637000", "164317.639000", "164317.642000", "164317.645000", "164317.648000", "164317.651000", "164317.653000", "164357.599000", "164357.602000", "164357.605000", "164357.608000", "164357.611000", "164357.614000", "164357.617000", "164357.620000", "164357.623000", "164357.625000", "164357.628000", "164357.631000", "164357.634000", "164357.636000", "164357.639000", "164357.642000", "164357.644000", "164357.647000", "164357.650000", "164357.653000", "164437.599000", "164437.602000", "164437.605000", "164437.608000", "164437.611000", "164437.613000", "164437.616000", "164437.619000", "164437.622000", "164437.624000", "164437.627000", "164437.630000", "164437.633000", "164437.635000", "164437.638000", "164437.641000", "164437.644000", "164437.659000", "164437.661000", "164437.664000", "164517.599000", "164517.602000", "164517.605000", "164517.608000", "164517.611000", "164517.613000", "164517.616000", "164517.619000", "164517.622000", "164517.624000", "164517.627000", "164517.630000", "164517.633000", "164517.636000", "164517.639000", "164517.641000", "164517.644000", "164517.647000", "164517.650000", "164517.653000", "164557.599000", "164557.602000", "164557.605000", "164557.608000", "164557.611000", "164557.614000", "164557.617000", "164557.619000", "164557.622000", "164557.625000", "164557.628000", "164557.631000", "164557.634000", "164557.637000", "164557.639000", "164557.642000", "164557.645000", "164557.648000", "164557.651000", "164557.653000", "164637.599000", "164637.602000", "164637.605000", "164637.608000", "164637.610000", "164637.613000", "164637.616000", "164637.618000", "164637.621000", "164637.624000", "164637.627000", "164637.630000", "164637.633000", "164637.635000", "164637.638000", "164637.641000", "164637.644000", "164637.647000", "164637.649000", "164637.652000", "164717.599000", "164717.602000", "164717.605000", "164717.608000", "164717.611000", "164717.613000", "164717.616000", "164717.619000", "164717.622000", "164717.625000", "164717.628000", "164717.630000", "164717.633000", "164717.636000", "164717.639000", "164717.641000", "164717.644000", "164717.647000", "164717.650000", "164717.653000", "164757.599000", "164757.602000", "164757.605000", "164757.608000", "164757.611000", "164757.614000", "164757.616000", "164757.619000", "164757.622000", "164757.625000", "164757.627000", "164757.630000", "164757.633000", "164757.636000", "164757.639000", "164757.642000", "164757.645000", "164757.648000", "164757.651000", "164757.654000", "164837.599000", "164837.602000", "164837.605000", "164837.608000", "164837.611000", "164837.614000", "164837.616000", "164837.619000", "164837.622000", "164837.625000", "164837.627000", "164837.630000", "164837.633000", "164837.636000", "164837.638000", "164837.641000", "164837.644000", "164837.647000", "164837.650000", "164837.652000", "164917.599000", "164917.602000", "164917.605000", "164917.608000", "164917.611000", "164917.614000", "164917.617000", "164917.619000", "164917.622000", "164917.625000", "164917.627000", "164917.630000", "164917.633000", "164917.636000", "164917.638000", "164917.641000", "164917.644000", "164917.647000", "164917.658000", "164917.661000", "164926.426000", "164926.430000", "164926.433000", "164926.436000", "164926.439000"],
      "InstanceCreationTime": ["164117.605000", "164117.615000", "164117.618000", "164117.621000", "164117.624000", "164117.627000", "164117.629000", "164117.632000", "164117.635000", "164117.638000", "164117.641000", "164157.599000", "164157.602000", "164157.605000", "164157.608000", "164157.612000", "164157.615000", "164157.617000", "164157.620000", "164157.623000", "164157.626000", "164157.628000", "164157.631000", "164157.634000", "164157.637000", "164157.640000", "164157.642000", "164157.645000", "164157.648000", "164157.651000", "164157.654000", "164237.599000", "164237.602000", "164237.605000", "164237.612000", "164237.615000", "164237.618000", "164237.621000", "164237.624000", "164237.627000", "164237.629000", "164237.632000", "164237.635000", "164237.638000", "164237.641000", "164237.644000", "164237.647000", "164237.649000", "164237.653000", "164237.655000", "164237.658000", "164317.600000", "164317.603000", "164317.606000", "164317.609000", "164317.612000", "164317.614000", "164317.617000", "164317.620000", "164317.623000", "164317.626000", "164317.628000", "164317.631000", "164317.634000", "164317.637000", "164317.639000", "164317.642000", "164317.645000", "164317.648000", "164317.651000", "164317.653000", "164357.599000", "164357.602000", "164357.605000", "164357.608000", "164357.611000", "164357.614000", "164357.617000", "164357.620000", "164357.623000", "164357.625000", "164357.628000", "164357.631000", "164357.634000", "164357.636000", "164357.639000", "164357.642000", "164357.644000", "164357.647000", "164357.650000", "164357.653000", "164437.599000", "164437.602000", "164437.605000", "164437.608000", "164437.611000", "164437.613000", "164437.616000", "164437.619000", "164437.622000", "164437.624000", "164437.627000", "164437.630000", "164437.633000", "164437.635000", "164437.638000", "164437.641000", "164437.644000", "164437.659000", "164437.661000", "164437.664000", "164517.599000", "164517.602000", "164517.605000", "164517.608000", "164517.611000", "164517.613000", "164517.616000", "164517.619000", "164517.622000", "164517.624000", "164517.627000", "164517.630000", "164517.633000", "164517.636000", "164517.639000", "164517.641000", "164517.644000", "164517.647000", "164517.650000", "164517.653000", "164557.599000", "164557.602000", "164557.605000", "164557.608000", "164557.611000", "164557.614000", "164557.617000", "164557.619000", "164557.622000", "164557.625000", "164557.628000", "164557.631000", "164557.634000", "164557.637000", "164557.639000", "164557.642000", "164557.645000", "164557.648000", "164557.651000", "164557.653000", "164637.599000", "164637.602000", "164637.605000", "164637.608000", "164637.610000", "164637.613000", "164637.616000", "164637.618000", "164637.621000", "164637.624000", "164637.627000", "164637.630000", "164637.633000", "164637.635000", "164637.638000", "164637.641000", "164637.644000", "164637.647000", "164637.649000", "164637.652000", "164717.599000", "164717.602000", "164717.605000", "164717.608000", "164717.611000", "164717.613000", "164717.616000", "164717.619000", "164717.622000", "164717.625000", "164717.628000", "164717.630000", "164717.633000", "164717.636000", "164717.639000", "164717.641000", "164717.644000", "164717.647000", "164717.650000", "164717.653000", "164757.599000", "164757.602000", "164757.605000", "164757.608000", "164757.611000", "164757.614000", "164757.616000", "164757.619000", "164757.622000", "164757.625000", "164757.627000", "164757.630000", "164757.633000", "164757.636000", "164757.639000", "164757.642000", "164757.645000", "164757.648000", "164757.651000", "164757.654000", "164837.599000", "164837.602000", "164837.605000", "164837.608000", "164837.611000", "164837.614000", "164837.616000", "164837.619000", "164837.622000", "164837.625000", "164837.627000", "164837.630000", "164837.633000", "164837.636000", "164837.638000", "164837.641000", "164837.644000", "164837.647000", "164837.650000", "164837.652000", "164917.599000", "164917.602000", "164917.605000", "164917.608000", "164917.611000", "164917.614000", "164917.617000", "164917.619000", "164917.622000", "164917.625000", "164917.627000", "164917.630000", "164917.633000", "164917.636000", "164917.638000", "164917.641000", "164917.644000", "164917.647000", "164917.658000", "164917.661000", "164926.426000", "164926.430000", "164926.433000", "164926.436000", "164926.439000"],
      "InstanceNumber": [1, 2, 3, 4, 5, 6, 7, 8, 9, 10, 11, 12, 13, 14, 15, 16, 17, 18, 19, 20, 21, 22, 23, 24, 25, 26, 27, 28, 29, 30, 31, 32, 33, 34, 35, 36, 37, 38, 39, 40, 41, 42, 43, 44, 45, 46, 47, 48, 49, 50, 51, 52, 53, 54, 55, 56, 57, 58, 59, 60, 61, 62, 63, 64, 65, 66, 67, 68, 69, 70, 71, 72, 73, 74, 75, 76, 77, 78, 79, 80, 81, 82, 83, 84, 85, 86, 87, 88, 89, 90, 91, 92, 93, 94, 95, 96, 97, 98, 99, 100, 101, 102, 103, 104, 105, 106, 107, 108, 109, 110, 111, 112, 113, 114, 115, 116, 117, 118, 119, 120, 121, 122, 123, 124, 125, 126, 127, 128, 129, 130, 131, 132, 133, 134, 135, 136, 137, 138, 139, 140, 141, 142, 143, 144, 145, 146, 147, 148, 149, 150, 151, 152, 153, 154, 155, 156, 157, 158, 159, 160, 161, 162, 163, 164, 165, 166, 167, 168, 169, 170, 171, 172, 173, 174, 175, 176, 177, 178, 179, 180, 181, 182, 183, 184, 185, 186, 187, 188, 189, 190, 191, 192, 193, 194, 195, 196, 197, 198, 199, 200, 201, 202, 203, 204, 205, 206, 207, 208, 209, 210, 211, 212, 213, 214, 215, 216, 217, 218, 219, 220, 221, 222, 223, 224, 225, 226, 227, 228, 229, 230, 231, 232, 233, 234, 235, 236, 237, 238, 239, 240, 241, 242, 243, 244, 245, 246, 247, 248, 249, 250, 251, 252, 253, 254, 255, 256],
      "LargestImagePixelValue": [1043, 1082, 1053, 1091, 1087, 1234, 1172, 1140, 1061, 1063, 1101, 986, 1263, 1177, 1049, 1056, 985, 1083, 1004, 1065, 1027, 1079, 1065, 1138, 1193, 1132, 1129, 984, 1075, 1097, 1139, 1013, 1107, 1077, 1107, 1075, 1141, 1105, 1118, 1153, 1169, 1057, 1074, 1084, 1155, 1095, 1029, 1054, 1095, 1095, 1050, 1070, 1080, 1093, 1112, 1036, 1047, 1063, 1127, 1141, 1102, 1202, 1126, 1157, 1197, 1050, 1074, 1138, 1050, 1095, 1071, 1094, 1084, 942, 1037, 986, 1175, 1106, 1087, 1037, 1096, 1010, 1055, 1095, 1250, 1124, 1022, 959, 1041, 1019, 1105, 1130, 1180, 1160, 984, 1066, 1062, 1186, 1070, 1014, 917, 1011, 1074, 1205, 1161, 1057, 1044, 1067, 1139, 1151, 1209, 1113, 1109, 980, 994, 1021, 1084, 1076, 1190, 993, 1097, 1076, 1098, 1184, 1206, 1135, 1075, 1017, 1088, 1112, 1172, 1152, 1143, 1125, 1114, 1147, 1064, 1115, 1049, 997, 978, 1057, 1049, 1114, 1115, 1115, 1108, 1076, 1068, 1064, 1080, 1068, 1096, 1142, 1203, 1136, 1037, 1025, 1173, 1141, 1120, 1087, 1017, 967, 1027, 1037, 1200, 1103, 1009, 973, 1010, 1074, 1112, 1200, 1161, 1127, 1069, 1036, 1003, 1044, 1079, 1073, 1097, 1186, 1141, 1043, 948, 1016, 1050, 1023, 1130, 1160, 1159, 957, 1000, 1012, 1056, 1105, 1203, 1100, 977, 1037, 1045, 1164, 1139, 1067, 973, 999, 1010, 1113, 1189, 1076, 1096, 1062, 970, 1113, 1089, 1166, 1119, 1043, 1062, 1014, 1098, 1103, 1146, 1130, 1012, 1031, 998, 1059, 1163, 1039, 1008, 997, 1081, 1131, 1080, 990, 1089, 1162, 1087, 1104, 998, 1058, 1057, 1118, 1139, 1153, 1104, 1042, 1043, 1052, 1057, 1086, 1072, 1096],
      "WindowCenter": [514.0, 514.0, 513.0, 513.0, 512.0, 513.0, 511.0, 512.0, 510.0, 510.0, 510.0, 509.0, 513.0, 512.0, 510.0, 510.0, 510.0, 512.0, 511.0, 512.0, 511.0, 512.0, 513.0, 513.0, 514.0, 512.0, 512.0, 511.0, 514.0, 514.0, 514.0, 511.0, 512.0, 512.0, 512.0, 511.0, 512.0, 511.0, 512.0, 512.0, 511.0, 511.0, 512.0, 512.0, 513.0, 512.0, 511.0, 511.0, 512.0, 512.0, 511.0, 512.0, 512.0, 512.0, 512.0, 511.0, 512.0, 512.0, 514.0, 514.0, 513.0, 514.0, 513.0, 513.0, 513.0, 511.0, 512.0, 511.0, 511.0, 512.0, 512.0, 513.0, 512.0, 511.0, 512.0, 511.0, 513.0, 513.0, 514.0, 513.0, 514.0, 513.0, 514.0, 513.0, 514.0, 513.0, 512.0, 511.0, 512.0, 512.0, 514.0, 514.0, 515.0, 515.0, 512.0, 512.0, 512.0, 514.0, 512.0, 512.0, 511.0, 514.0, 514.0, 515.0, 515.0, 513.0, 513.0, 513.0, 514.0, 514.0, 514.0, 514.0, 513.0, 512.0, 513.0, 512.0, 513.0, 513.0, 514.0, 513.0, 515.0, 514.0, 513.0, 513.0, 514.0, 512.0, 512.0, 512.0, 513.0, 514.0, 515.0, 514.0, 514.0, 512.0, 512.0, 511.0, 511.0, 512.0, 511.0, 511.0, 511.0, 512.0, 512.0, 513.0, 513.0, 513.0, 513.0, 512.0, 512.0, 512.0, 512.0, 512.0, 513.0, 513.0, 513.0, 513.0, 513.0, 513.0, 515.0, 514.0, 513.0, 512.0, 512.0, 510.0, 512.0, 512.0, 513.0, 512.0, 511.0, 511.0, 512.0, 513.0, 512.0, 513.0, 513.0, 513.0, 512.0, 512.0, 511.0, 512.0, 512.0, 512.0, 512.0, 513.0, 512.0, 512.0, 511.0, 511.0, 512.0, 512.0, 514.0, 514.0, 514.0, 511.0, 511.0, 512.0, 513.0, 513.0, 514.0, 512.0, 512.0, 512.0, 512.0, 513.0, 513.0, 513.0, 512.0, 512.0, 512.0, 514.0, 514.0, 513.0, 513.0, 513.0, 512.0, 513.0, 512.0, 513.0, 513.0, 513.0, 513.0, 512.0, 512.0, 512.0, 512.0, 512.0, 512.0, 512.0, 511.0, 513.0, 514.0, 513.0, 513.0, 512.0, 513.0, 514.0, 514.0, 513.0, 513.0, 514.0, 514.0, 515.0, 514.0, 513.0, 514.0, 514.0, 515.0, 515.0, 515.0, 513.0, 512.0, 513.0, 513.0, 514.0, 513.0, 514.0],
      "WindowWidth": [1069.0, 1068.0, 1066.0, 1066.0, 1063.0, 1065.0, 1062.0, 1063.0, 1060.0, 1059.0, 1059.0, 1057.0, 1064.0, 1062.0, 1059.0, 1060.0, 1060.0, 1063.0, 1061.0, 1063.0, 1062.0, 1064.0, 1065.0, 1065.0, 1066.0, 1064.0, 1063.0, 1062.0, 1067.0, 1068.0, 1067.0, 1063.0, 1064.0, 1063.0, 1064.0, 1062.0, 1063.0, 1062.0, 1063.0, 1062.0, 1062.0, 1061.0, 1064.0, 1063.0, 1065.0, 1063.0, 1062.0, 1062.0, 1064.0, 1063.0, 1061.0, 1062.0, 1063.0, 1063.0, 1064.0, 1062.0, 1064.0, 1064.0, 1067.0, 1066.0, 1066.0, 1067.0, 1064.0, 1065.0, 1066.0, 1062.0, 1063.0, 1062.0, 1062.0, 1064.0, 1063.0, 1065.0, 1063.0, 1061.0, 1063.0, 1061.0, 1066.0, 1066.0, 1067.0, 1066.0, 1068.0, 1065.0, 1066.0, 1065.0, 1067.0, 1064.0, 1063.0, 1062.0, 1063.0, 1064.0, 1066.0, 1068.0, 1068.0, 1068.0, 1064.0, 1064.0, 1063.0, 1067.0, 1064.0, 1064.0, 1062.0, 1067.0, 1067.0, 1070.0, 1068.0, 1066.0, 1064.0, 1065.0, 1066.0, 1066.0, 1068.0, 1066.0, 1066.0, 1064.0, 1065.0, 1064.0, 1066.0, 1066.0, 1068.0, 1065.0, 1068.0, 1066.0, 1066.0, 1065.0, 1067.0, 1064.0, 1064.0, 1063.0, 1065.0, 1066.0, 1069.0, 1068.0, 1066.0, 1064.0, 1063.0, 1062.0, 1062.0, 1063.0, 1062.0, 1061.0, 1062.0, 1064.0, 1063.0, 1066.0, 1065.0, 1065.0, 1065.0, 1063.0, 1064.0, 1063.0, 1065.0, 1064.0, 1066.0, 1065.0, 1066.0, 1065.0, 1065.0, 1065.0, 1069.0, 1067.0, 1065.0, 1063.0, 1063.0, 1061.0, 1064.0, 1063.0, 1065.0, 1063.0, 1062.0, 1063.0, 1063.0, 1064.0, 1064.0, 1066.0, 1065.0, 1065.0, 1063.0, 1064.0, 1062.0, 1064.0, 1064.0, 1064.0, 1064.0, 1066.0, 1064.0, 1063.0, 1062.0, 1063.0, 1064.0, 1063.0, 1067.0, 1067.0, 1067.0, 1062.0, 1063.0, 1063.0, 1065.0, 1066.0, 1067.0, 1064.0, 1063.0, 1064.0, 1063.0, 1066.0, 1064.0, 1065.0, 1063.0, 1064.0, 1064.0, 1067.0, 1066.0, 1066.0, 1066.0, 1066.0, 1064.0, 1066.0, 1064.0, 1066.0, 1066.0, 1065.0, 1066.0, 1064.0, 1064.0, 1063.0, 1064.0, 1064.0, 1063.0, 1064.0, 1063.0, 1065.0, 1067.0, 1065.0, 1065.0, 1064.0, 1066.0, 1067.0, 1067.0, 1065.0, 1066.0, 1067.0, 1067.0, 1069.0, 1067.0, 1066.0, 1067.0, 1068.0, 1070.0, 1069.0, 1068.0, 1066.0, 1064.0, 1065.0, 1066.0, 1067.0, 1066.0, 1067.0]
    },
    "slices": {}
  }
}