{
  "AcquisitionMatrixPE": 64,
  "AcquisitionNumber": 1,
  "AcquisitionTime": "16:34:57.715000",
  "BandwidthPerPixelPhaseEncode": 40.064,
  "BaseResolution": 64,
  "BodyPartExamined": "BRAIN",
  "ConsistencyInfo": "N4_VD13D_LATEST_20130810",
  "ConversionSoftware": "dcm2niix",
  "ConversionSoftwareVersion": "v1.0.20191031",
  "DerivedVendorReportedEchoSpacing": 0.000780002,
  "DeviceSerialNumber": "67007",
  "DwellTime": 5.3e-06,
  "EchoTime": 0.03,
  "EchoTrainLength": 31,
  "EffectiveEchoSpacing": 0.000390001,
  "FlipAngle": 75,
  "ImageOrientationPatientDICOM": [0.999976, -0.00545748, -0.00416111, 0.00523591, 0.998658, -0.0515173],
  "ImageType": [
    "ORIGINAL",
    "PRIMARY",
    "M",
    "ND",
    "NORM",
    "MOSAIC"
],
  "ImagingFrequency": 123.211,
  "InPlanePhaseEncodingDirectionDICOM": "ROW",
  "InstitutionAddress": "Perth_Drive_100_London_Ontario_CA_N6A_5K8",
  "InstitutionName": "Robarts-CFMM",
  "InstitutionalDepartmentName": "CFMM",
  "MRAcquisitionType": "2D",
  "MagneticFieldStrength": 3,
  "Manufacturer": "Siemens",
  "ManufacturersModelName": "Prisma_fit",
  "Modality": "MR",
  "ParallelReductionFactorInPlane": 2,
  "PartialFourier": 1,
  "PatientPosition": "HFS",
  "PercentPhaseFOV": 100,
  "PhaseEncodingDirection": "i",
  "PhaseEncodingSteps": 63,
  "PhaseResolution": 1,
  "PixelBandwidth": 1475,
  "ProcedureStepDescription": "Owen_Naci",
  "ProtocolName": "taken",
  "PulseSequenceDetails": "%SiemensSeq%_ep2d_bold",
  "ReceiveCoilActiveElements": "HEA;HEP",
  "ReceiveCoilName": "Head_32",
  "ReconMatrixPE": 64,
  "RefLinesPE": 24,
  "RepetitionTime": 2,
  "SAR": 0.0814128,
  "ScanOptions": "FS",
  "ScanningSequence": "EP",
  "SequenceName": "_epfid2d1_64",
  "SequenceVariant": "SK",
  "SeriesDescription": "taken",
  "SeriesNumber": 2,
  "ShimSetting": [5239, -6199, -3811, 375, 54, -181, 73, 34],
  "SliceThickness": 3,
  "SliceTiming": [1.92, 1.86, 1.8, 1.74, 1.68, 1.62, 1.56, 1.5, 1.44, 1.38, 1.32, 1.26, 1.2, 1.14, 1.08, 1.02, 0.96, 0.9, 0.84, 0.78, 0.72, 0.66, 0.6, 0.54, 0.48, 0.42, 0.36, 0.3, 0.24, 0.18, 0.12, 0.06, 0],
  "SoftwareVersions": "syngo_MR_D13D",
  "SpacingBetweenSlices": 3.75,
  "StationName": "AWP67007",
  "TaskName": "audio",
  "TotalReadoutTime": 0.0245701,
  "TxRefAmp": 277.962,
  "dcmmeta_affine": [
    [-2.999929428100586, 0.01570773683488369, -0.016637537628412247, 87.11847686767578],
    [0.01637244038283825, 2.9959750175476074, -0.1931036412715912, -77.91716766357422],
    [-0.012483314611017704, 0.1545519083738327, 3.744987964630127, -41.56442642211914],
    [0.0, 0.0, 0.0, 1.0]
],
  "dcmmeta_reorient_transform": [
    [0.0, -1.0, 0.0, 63.0],
    [1.0, 0.0, 0.0, 0.0],
    [0.0, 0.0, 1.0, 0.0],
    [0.0, 0.0, 0.0, 1.0]
],
  "dcmmeta_shape": [64, 64, 33, 155],
  "dcmmeta_slice_dim": 2,
  "dcmmeta_version": 0.6,
  "global": {
    "const": {
      "AcquisitionMatrix": [0, 64, 64, 0],
      "AngioFlag": "N",
      "BitsAllocated": 16,
      "BitsStored": 12,
      "BodyPartExamined": "BRAIN",
      "Columns": 384,
      "EchoNumbers": 1,
      "EchoTime": 30.0,
      "EchoTrainLength": 31,
      "FlipAngle": 75.0,
      "HighBit": 11,
      "ImageOrientationPatient": [0.99997645028301, -0.0054574798333, -0.0041611048126, 0.00523591236016, 0.99865837642512, -0.0515173021198],
      "ImagePositionPatient": [-570.61000024953, -587.56569580701, -5.1020205048632],
      "ImageType": [
        "ORIGINAL",
        "PRIMARY",
        "M",
        "ND",
        "NORM",
        "MOSAIC"
],
      "ImagedNucleus": "1H",
      "ImagingFrequency": 123.211247,
      "InPlanePhaseEncodingDirection": "ROW",
      "MRAcquisitionType": "2D",
      "MagneticFieldStrength": 3.0,
      "Manufacturer": "SIEMENS",
      "ManufacturerModelName": "Prisma_fit",
      "Modality": "MR",
      "NumberOfAverages": 1.0,
      "NumberOfPhaseEncodingSteps": 63,
      "PercentPhaseFieldOfView": 100.0,
      "PercentSampling": 100.0,
      "PerformedProcedureStepStartTime": "154836.213000",
      "PhotometricInterpretation": "MONOCHROME2",
      "PixelBandwidth": 1475.0,
      "PixelRepresentation": 0,
      "PixelSpacing": [3.0, 3.0],
      "ProtocolName": "taken",
      "RepetitionTime": 2000.0,
      "Rows": 384,
      "SAR": 0.08141278047948,
      "SamplesPerPixel": 1,
      "ScanOptions": "FS",
      "ScanningSequence": "EP",
      "SequenceName": "*epfid2d1_64",
      "SequenceVariant": "SK",
      "SeriesDescription": "taken",
      "SeriesNumber": 2,
      "SeriesTime": "163548.033000",
      "SliceLocation": -37.883098692629,
      "SliceThickness": 3.0,
      "SmallestImagePixelValue": 0,
      "SoftwareVersions": "syngo MR D13D",
      "SpacingBetweenSlices": 3.7500000906697,
      "SpecificCharacterSet": "ISO_IR 100",
      "StudyID": "1",
      "StudyTime": "154836.109000",
      "TimeOfLastCalibration": ["123723.000000", "123723.000000"],
      "TransmitCoilName": "Body",
      "VariableFlipAngleFlag": "N",
      "WindowCenterWidthExplanation": "Algo1",
      "dBdt": 0.0},
    "slices": {}
  },
  "time": {
    "samples": {
      "AcquisitionNumber": [1, 2, 3, 4, 5, 6, 7, 8, 9, 10, 11, 12, 13, 14, 15, 16, 17, 18, 19, 20, 21, 22, 23, 24, 25, 26, 27, 28, 29, 30, 31, 32, 33, 34, 35, 36, 37, 38, 39, 40, 41, 42, 43, 44, 45, 46, 47, 48, 49, 50, 51, 52, 53, 54, 55, 56, 57, 58, 59, 60, 61, 62, 63, 64, 65, 66, 67, 68, 69, 70, 71, 72, 73, 74, 75, 76, 77, 78, 79, 80, 81, 82, 83, 84, 85, 86, 87, 88, 89, 90, 91, 92, 93, 94, 95, 96, 97, 98, 99, 100, 101, 102, 103, 104, 105, 106, 107, 108, 109, 110, 111, 112, 113, 114, 115, 116, 117, 118, 119, 120, 121, 122, 123, 124, 125, 126, 127, 128, 129, 130, 131, 132, 133, 134, 135, 136, 137, 138, 139, 140, 141, 142, 143, 144, 145, 146, 147, 148, 149, 150, 151, 152, 153, 154, 155],
      "AcquisitionTime": ["163457.715000", "163459.715000", "163501.715000", "163503.715000", "163505.715000", "163507.715000", "163509.715000", "163511.715000", "163513.715000", "163515.715000", "163517.715000", "163519.715000", "163521.715000", "163523.715000", "163525.715000", "163527.715000", "163529.715000", "163531.715000", "163533.715000", "163535.715000", "163537.715000", "163539.715000", "163541.715000", "163543.715000", "163545.715000", "163547.715000", "163549.715000", "163551.715000", "163553.715000", "163555.715000", "163557.715000", "163559.715000", "163601.715000", "163603.715000", "163605.715000", "163607.715000", "163609.715000", "163611.715000", "163613.715000", "163615.715000", "163617.715000", "163619.715000", "163621.715000", "163623.715000", "163625.715000", "163627.715000", "163629.715000", "163631.715000", "163633.715000", "163635.715000", "163637.715000", "163639.715000", "163641.715000", "163643.715000", "163645.715000", "163647.715000", "163649.715000", "163651.715000", "163653.715000", "163655.715000", "163657.715000", "163659.715000", "163701.715000", "163703.715000", "163705.715000", "163707.715000", "163709.715000", "163711.717500", "163713.717500", "163715.717500", "163717.717500", "163719.717500", "163721.717500", "163723.717500", "163725.717500", "163727.717500", "163729.717500", "163731.717500", "163733.717500", "163735.717500", "163737.717500", "163739.717500", "163741.717500", "163743.717500", "163745.717500", "163747.717500", "163749.717500", "163751.717500", "163753.717500", "163755.717500", "163757.717500", "163759.717500", "163801.717500", "163803.717500", "163805.717500", "163807.717500", "163809.717500", "163811.717500", "163813.717500", "163815.717500", "163817.717500", "163819.717500", "163821.717500", "163823.717500", "163825.717500", "163827.717500", "163829.717500", "163831.717500", "163833.717500", "163835.717500", "163837.717500", "163839.717500", "163841.717500", "163843.717500", "163845.717500", "163847.717500", "163849.717500", "163851.717500", "163853.717500", "163855.717500", "163857.717500", "163859.717500", "163901.717500", "163903.717500", "163905.717500", "163907.717500", "163909.717500", "163911.717500", "163913.717500", "163915.717500", "163917.717500", "163919.717500", "163921.717500", "163923.717500", "163925.717500", "163927.717500", "163929.717500", "163931.717500", "163933.717500", "163935.717500", "163937.717500", "163939.717500", "163941.717500", "163943.717500", "163945.717500", "163947.717500", "163949.717500", "163951.717500", "163953.717500", "163955.717500", "163957.717500", "163959.717500", "164001.717500", "164003.717500", "164005.717500"],
      "ContentTime": ["163548.037000", "163548.043000", "163548.046000", "163548.049000", "163548.051000", "163548.054000", "163548.057000", "163548.059000", "163548.062000", "163548.065000", "163548.067000", "163548.070000", "163548.073000", "163548.075000", "163548.078000", "163548.081000", "163548.083000", "163548.086000", "163548.089000", "163548.092000", "163548.095000", "163548.097000", "163548.100000", "163548.103000", "163628.031000", "163628.034000", "163628.037000", "163628.040000", "163628.042000", "163628.045000", "163628.047000", "163628.050000", "163628.053000", "163628.055000", "163628.058000", "163628.061000", "163628.063000", "163628.066000", "163628.069000", "163628.071000", "163628.074000", "163628.077000", "163628.079000", "163628.082000", "163708.029000", "163708.032000", "163708.035000", "163708.038000", "163708.040000", "163708.043000", "163708.046000", "163708.049000", "163708.051000", "163708.054000", "163708.057000", "163708.060000", "163708.063000", "163708.066000", "163708.068000", "163708.071000", "163708.074000", "163708.077000", "163708.079000", "163708.082000", "163748.031000", "163748.049000", "163748.052000", "163748.054000", "163748.057000", "163748.060000", "163748.063000", "163748.065000", "163748.068000", "163748.071000", "163748.073000", "163748.076000", "163748.079000", "163748.082000", "163748.084000", "163748.087000", "163748.089000", "163748.092000", "163748.095000", "163748.098000", "163828.031000", "163828.034000", "163828.037000", "163828.040000", "163828.049000", "163828.052000", "163828.054000", "163828.057000", "163828.060000", "163828.062000", "163828.065000", "163828.068000", "163828.071000", "163828.074000", "163828.076000", "163828.079000", "163828.081000", "163828.084000", "163828.087000", "163828.089000", "163908.031000", "163908.118000", "163908.120000", "163908.123000", "163908.126000", "163908.128000", "163908.131000", "163908.134000", "163908.136000", "163908.139000", "163908.142000", "163908.145000", "163908.147000", "163908.150000", "163908.153000", "163908.155000", "163908.158000", "163908.161000", "163908.163000", "163908.166000", "163948.031000", "163948.037000", "163948.040000", "163948.042000", "163948.045000", "163948.048000", "163948.050000", "163948.053000", "163948.056000", "163948.059000", "163948.061000", "163948.064000", "163948.067000", "163948.070000", "163948.073000", "163948.075000", "163948.078000", "163948.081000", "163948.084000", "163948.086000", "164009.557000", "164009.561000", "164009.563000", "164009.566000", "164009.569000", "164009.572000", "164009.575000", "164009.578000", "164009.580000", "164009.584000", "164009.591000"],
      "InstanceCreationTime": ["163548.037000", "163548.043000", "163548.046000", "163548.049000", "163548.051000", "163548.054000", "163548.057000", "163548.059000", "163548.062000", "163548.065000", "163548.067000", "163548.070000", "163548.073000", "163548.075000", "163548.078000", "163548.081000", "163548.083000", "163548.086000", "163548.089000", "163548.092000", "163548.095000", "163548.097000", "163548.100000", "163548.103000", "163628.031000", "163628.034000", "163628.037000", "163628.040000", "163628.042000", "163628.045000", "163628.047000", "163628.050000", "163628.053000", "163628.055000", "163628.058000", "163628.061000", "163628.063000", "163628.066000", "163628.069000", "163628.071000", "163628.074000", "163628.077000", "163628.079000", "163628.082000", "163708.029000", "163708.032000", "163708.035000", "163708.038000", "163708.040000", "163708.043000", "163708.046000", "163708.049000", "163708.051000", "163708.054000", "163708.057000", "163708.060000", "163708.063000", "163708.066000", "163708.068000", "163708.071000", "163708.074000", "163708.077000", "163708.079000", "163708.082000", "163748.031000", "163748.049000", "163748.052000", "163748.054000", "163748.057000", "163748.060000", "163748.063000", "163748.065000", "163748.068000", "163748.071000", "163748.073000", "163748.076000", "163748.079000", "163748.082000", "163748.084000", "163748.087000", "163748.089000", "163748.092000", "163748.095000", "163748.098000", "163828.031000", "163828.034000", "163828.037000", "163828.040000", "163828.049000", "163828.052000", "163828.054000", "163828.057000", "163828.060000", "163828.062000", "163828.065000", "163828.068000", "163828.071000", "163828.074000", "163828.076000", "163828.079000", "163828.081000", "163828.084000", "163828.087000", "163828.089000", "163908.031000", "163908.118000", "163908.120000", "163908.123000", "163908.126000", "163908.128000", "163908.131000", "163908.134000", "163908.136000", "163908.139000", "163908.142000", "163908.145000", "163908.147000", "163908.150000", "163908.153000", "163908.155000", "163908.158000", "163908.161000", "163908.163000", "163908.166000", "163948.031000", "163948.037000", "163948.040000", "163948.042000", "163948.045000", "163948.048000", "163948.050000", "163948.053000", "163948.056000", "163948.059000", "163948.061000", "163948.064000", "163948.067000", "163948.070000", "163948.073000", "163948.075000", "163948.078000", "163948.081000", "163948.084000", "163948.086000", "164009.557000", "164009.561000", "164009.563000", "164009.566000", "164009.569000", "164009.572000", "164009.575000", "164009.578000", "164009.580000", "164009.584000", "164009.591000"],
      "InstanceNumber": [1, 2, 3, 4, 5, 6, 7, 8, 9, 10, 11, 12, 13, 14, 15, 16, 17, 18, 19, 20, 21, 22, 23, 24, 25, 26, 27, 28, 29, 30, 31, 32, 33, 34, 35, 36, 37, 38, 39, 40, 41, 42, 43, 44, 45, 46, 47, 48, 49, 50, 51, 52, 53, 54, 55, 56, 57, 58, 59, 60, 61, 62, 63, 64, 65, 66, 67, 68, 69, 70, 71, 72, 73, 74, 75, 76, 77, 78, 79, 80, 81, 82, 83, 84, 85, 86, 87, 88, 89, 90, 91, 92, 93, 94, 95, 96, 97, 98, 99, 100, 101, 102, 103, 104, 105, 106, 107, 108, 109, 110, 111, 112, 113, 114, 115, 116, 117, 118, 119, 120, 121, 122, 123, 124, 125, 126, 127, 128, 129, 130, 131, 132, 133, 134, 135, 136, 137, 138, 139, 140, 141, 142, 143, 144, 145, 146, 147, 148, 149, 150, 151, 152, 153, 154, 155],
      "LargestImagePixelValue": [1076, 1070, 1132, 1138, 952, 1040, 945, 1071, 1117, 1097, 981, 1016, 1100, 1072, 1000, 1052, 1071, 1020, 989, 991, 1049, 948, 1044, 1082, 985, 999, 1031, 985, 1032, 985, 1067, 1090, 1088, 973, 973, 947, 1012, 1006, 1194, 1073, 958, 931, 979, 1037, 1225, 1092, 1024, 946, 1000, 1048, 1049, 1037, 1053, 1059, 1053, 1054, 1028, 989, 1008, 1035, 1049, 1060, 1061, 994, 1026, 1042, 1085, 1056, 1085, 1024, 1035, 993, 1022, 1013, 1010, 1034, 977, 998, 1020, 1058, 1101, 1052, 1083, 998, 990, 965, 1030, 1021, 1047, 966, 1026, 1028, 1047, 1037, 1055, 1019, 1031, 1043, 1017, 1041, 1006, 1008, 1035, 1038, 975, 1005, 995, 1038, 1018, 1034, 1009, 1055, 966, 987, 976, 1039, 1024, 1050, 1020, 1095, 1064, 1008, 983, 1013, 965, 1013, 995, 1017, 1025, 987, 1208, 1042, 987, 946, 960, 1023, 973, 1009, 1023, 1037, 1087, 1093, 981, 1038, 1016, 1080, 988, 1000, 970, 985, 985, 1002, 1055, 1029, 1069],
      "WindowCenter": [512.0, 511.0, 510.0, 511.0, 508.0, 509.0, 507.0, 510.0, 509.0, 509.0, 506.0, 507.0, 507.0, 507.0, 507.0, 507.0, 508.0, 507.0, 507.0, 507.0, 507.0, 506.0, 508.0, 509.0, 508.0, 510.0, 510.0, 509.0, 509.0, 508.0, 510.0, 510.0, 510.0, 508.0, 508.0, 508.0, 510.0, 509.0, 511.0, 509.0, 508.0, 508.0, 509.0, 510.0, 511.0, 509.0, 508.0, 508.0, 508.0, 509.0, 509.0, 510.0, 509.0, 510.0, 510.0, 510.0, 510.0, 509.0, 510.0, 511.0, 510.0, 510.0, 509.0, 508.0, 510.0, 510.0, 511.0, 509.0, 510.0, 508.0, 509.0, 508.0, 508.0, 508.0, 508.0, 508.0, 508.0, 508.0, 508.0, 508.0, 509.0, 508.0, 508.0, 506.0, 506.0, 506.0, 507.0, 507.0, 508.0, 507.0, 509.0, 509.0, 510.0, 510.0, 510.0, 509.0, 509.0, 509.0, 509.0, 509.0, 509.0, 509.0, 509.0, 508.0, 508.0, 509.0, 508.0, 509.0, 508.0, 509.0, 508.0, 510.0, 509.0, 509.0, 507.0, 508.0, 508.0, 509.0, 508.0, 510.0, 510.0, 509.0, 508.0, 508.0, 508.0, 508.0, 508.0, 508.0, 507.0, 508.0, 510.0, 508.0, 507.0, 507.0, 506.0, 508.0, 507.0, 508.0, 508.0, 509.0, 508.0, 508.0, 507.0, 509.0, 509.0, 510.0, 508.0, 508.0, 507.0, 507.0, 507.0, 508.0, 509.0, 508.0, 509.0],
      "WindowWidth": [1064.0, 1061.0, 1059.0, 1060.0, 1056.0, 1057.0, 1055.0, 1059.0, 1058.0, 1057.0, 1053.0, 1053.0, 1054.0, 1054.0, 1054.0, 1054.0, 1056.0, 1054.0, 1053.0, 1053.0, 1055.0, 1053.0, 1056.0, 1057.0, 1057.0, 1059.0, 1060.0, 1057.0, 1058.0, 1057.0, 1059.0, 1059.0, 1059.0, 1057.0, 1056.0, 1057.0, 1060.0, 1058.0, 1062.0, 1057.0, 1055.0, 1055.0, 1058.0, 1059.0, 1061.0, 1058.0, 1057.0, 1056.0, 1057.0, 1058.0, 1058.0, 1059.0, 1058.0, 1059.0, 1059.0, 1060.0, 1059.0, 1058.0, 1061.0, 1062.0, 1060.0, 1059.0, 1058.0, 1057.0, 1059.0, 1059.0, 1061.0, 1058.0, 1059.0, 1056.0, 1057.0, 1056.0, 1056.0, 1056.0, 1056.0, 1056.0, 1055.0, 1055.0, 1055.0, 1056.0, 1057.0, 1056.0, 1056.0, 1053.0, 1053.0, 1052.0, 1054.0, 1054.0, 1055.0, 1054.0, 1057.0, 1058.0, 1059.0, 1059.0, 1060.0, 1058.0, 1058.0, 1057.0, 1057.0, 1057.0, 1058.0, 1058.0, 1058.0, 1057.0, 1056.0, 1057.0, 1057.0, 1058.0, 1057.0, 1058.0, 1057.0, 1060.0, 1057.0, 1057.0, 1055.0, 1056.0, 1056.0, 1057.0, 1057.0, 1060.0, 1060.0, 1058.0, 1056.0, 1056.0, 1056.0, 1056.0, 1056.0, 1056.0, 1055.0, 1056.0, 1059.0, 1056.0, 1055.0, 1054.0, 1053.0, 1055.0, 1054.0, 1056.0, 1056.0, 1058.0, 1056.0, 1056.0, 1055.0, 1057.0, 1058.0, 1060.0, 1056.0, 1057.0, 1054.0, 1055.0, 1055.0, 1057.0, 1057.0, 1057.0, 1058.0]
    },
    "slices": {}
  }
}