{
  "AcquisitionMatrixPE": 64,
  "AcquisitionNumber": 1,
  "AcquisitionTime": "18:25:11.275000",
  "BandwidthPerPixelPhaseEncode": 40.064,
  "BaseResolution": 64,
  "BodyPartExamined": "BRAIN",
  "ConsistencyInfo": "N4_VD13D_LATEST_20130810",
  "ConversionSoftware": "dcm2niix",
  "ConversionSoftwareVersion": "v1.0.20191031",
  "DerivedVendorReportedEchoSpacing": 0.000780002,
  "DeviceSerialNumber": "67007",
  "DwellTime": 5.3e-06,
  "EchoTime": 0.03,
  "EchoTrainLength": 31,
  "EffectiveEchoSpacing": 0.000390001,
  "FlipAngle": 75,
  "ImageOrientationPatientDICOM": [0.999976, -0.00545748, -0.00416111, 0.00523591, 0.998658, -0.0515173],
  "ImageType": [
    "ORIGINAL",
    "PRIMARY",
    "M",
    "ND",
    "NORM",
    "MOSAIC"
],
  "ImagingFrequency": 123.211,
  "InPlanePhaseEncodingDirectionDICOM": "ROW",
  "InstitutionAddress": "Perth_Drive_100_London_Ontario_CA_N6A_5K8",
  "InstitutionName": "Robarts-CFMM",
  "InstitutionalDepartmentName": "CFMM",
  "MRAcquisitionType": "2D",
  "MagneticFieldStrength": 3,
  "Manufacturer": "Siemens",
  "ManufacturersModelName": "Prisma_fit",
  "Modality": "MR",
  "ParallelReductionFactorInPlane": 2,
  "PartialFourier": 1,
  "PatientPosition": "HFS",
  "PercentPhaseFOV": 100,
  "PhaseEncodingDirection": "i",
  "PhaseEncodingSteps": 63,
  "PhaseResolution": 1,
  "PixelBandwidth": 1475,
  "ProcedureStepDescription": "Owen_Naci",
  "ProtocolName": "taken_recovery",
  "PulseSequenceDetails": "%SiemensSeq%_ep2d_bold",
  "ReceiveCoilActiveElements": "HEA;HEP",
  "ReceiveCoilName": "Head_32",
  "ReconMatrixPE": 64,
  "RefLinesPE": 24,
  "RepetitionTime": 2,
  "SAR": 0.0814128,
  "ScanOptions": "FS",
  "ScanningSequence": "EP",
  "SequenceName": "_epfid2d1_64",
  "SequenceVariant": "SK",
  "SeriesDescription": "taken_recovery",
  "SeriesNumber": 21,
  "ShimSetting": [5239, -6199, -3811, 375, 54, -181, 73, 34],
  "SliceThickness": 3,
  "SliceTiming": [1.92, 1.86, 1.8, 1.74, 1.68, 1.62, 1.56, 1.5, 1.44, 1.38, 1.32, 1.26, 1.2, 1.14, 1.08, 1.02, 0.96, 0.9, 0.84, 0.78, 0.72, 0.66, 0.6, 0.54, 0.48, 0.42, 0.36, 0.3, 0.24, 0.18, 0.12, 0.06, 0],
  "SoftwareVersions": "syngo_MR_D13D",
  "SpacingBetweenSlices": 3.75,
  "StationName": "AWP67007",
  "TaskName": "audiorecovery",
  "TotalReadoutTime": 0.0245701,
  "TxRefAmp": 277.962,
  "dcmmeta_affine": [
    [-2.999929428100586, 0.01570773869752884, -0.016637537628412247, 87.11847686767578],
    [0.01637244038283825, 2.9959750175476074, -0.1931036412715912, -77.91716766357422],
    [-0.012483314611017704, 0.1545519083738327, 3.744987964630127, -41.56442642211914],
    [0.0, 0.0, 0.0, 1.0]
],
  "dcmmeta_reorient_transform": [
    [0.0, -1.0, 0.0, 63.0],
    [1.0, 0.0, 0.0, 0.0],
    [0.0, 0.0, 1.0, 0.0],
    [0.0, 0.0, 0.0, 1.0]
],
  "dcmmeta_shape": [64, 64, 33, 155],
  "dcmmeta_slice_dim": 2,
  "dcmmeta_version": 0.6,
  "global": {
    "const": {
      "AcquisitionMatrix": [0, 64, 64, 0],
      "AngioFlag": "N",
      "BitsAllocated": 16,
      "BitsStored": 12,
      "BodyPartExamined": "BRAIN",
      "Columns": 384,
      "EchoNumbers": 1,
      "EchoTime": 30.0,
      "EchoTrainLength": 31,
      "FlipAngle": 75.0,
      "HighBit": 11,
      "ImageOrientationPatient": [0.99997645028052, -0.0054574802988, -0.0041611048006, 0.00523591282566, 0.99865837642263, -0.0515173021207],
      "ImagePositionPatient": [-570.61000051622, -587.56569553745, -5.1020205112361],
      "ImageType": [
        "ORIGINAL",
        "PRIMARY",
        "M",
        "ND",
        "NORM",
        "MOSAIC"
],
      "ImagedNucleus": "1H",
      "ImagingFrequency": 123.211265,
      "InPlanePhaseEncodingDirection": "ROW",
      "MRAcquisitionType": "2D",
      "MagneticFieldStrength": 3.0,
      "Manufacturer": "SIEMENS",
      "ManufacturerModelName": "Prisma_fit",
      "Modality": "MR",
      "NumberOfAverages": 1.0,
      "NumberOfPhaseEncodingSteps": 63,
      "PercentPhaseFieldOfView": 100.0,
      "PercentSampling": 100.0,
      "PerformedProcedureStepStartTime": "154836.213000",
      "PhotometricInterpretation": "MONOCHROME2",
      "PixelBandwidth": 1475.0,
      "PixelRepresentation": 0,
      "PixelSpacing": [3.0, 3.0],
      "ProtocolName": "taken_recovery",
      "RepetitionTime": 2000.0,
      "Rows": 384,
      "SAR": 0.08141278047948,
      "SamplesPerPixel": 1,
      "ScanOptions": "FS",
      "ScanningSequence": "EP",
      "SequenceName": "*epfid2d1_64",
      "SequenceVariant": "SK",
      "SeriesDescription": "taken_recovery",
      "SeriesNumber": 21,
      "SeriesTime": "182608.042000",
      "SliceLocation": -37.883098692512,
      "SliceThickness": 3.0,
      "SmallestImagePixelValue": 0,
      "SoftwareVersions": "syngo MR D13D",
      "SpacingBetweenSlices": 3.7500000906697,
      "SpecificCharacterSet": "ISO_IR 100",
      "StudyID": "1",
      "StudyTime": "154836.109000",
      "TimeOfLastCalibration": ["123723.000000", "123723.000000"],
      "TransmitCoilName": "Body",
      "VariableFlipAngleFlag": "N",
      "WindowCenterWidthExplanation": "Algo1",
      "dBdt": 0.0},
    "slices": {}
  },
  "time": {
    "samples": {
      "AcquisitionNumber": [1, 2, 3, 4, 5, 6, 7, 8, 9, 10, 11, 12, 13, 14, 15, 16, 17, 18, 19, 20, 21, 22, 23, 24, 25, 26, 27, 28, 29, 30, 31, 32, 33, 34, 35, 36, 37, 38, 39, 40, 41, 42, 43, 44, 45, 46, 47, 48, 49, 50, 51, 52, 53, 54, 55, 56, 57, 58, 59, 60, 61, 62, 63, 64, 65, 66, 67, 68, 69, 70, 71, 72, 73, 74, 75, 76, 77, 78, 79, 80, 81, 82, 83, 84, 85, 86, 87, 88, 89, 90, 91, 92, 93, 94, 95, 96, 97, 98, 99, 100, 101, 102, 103, 104, 105, 106, 107, 108, 109, 110, 111, 112, 113, 114, 115, 116, 117, 118, 119, 120, 121, 122, 123, 124, 125, 126, 127, 128, 129, 130, 131, 132, 133, 134, 135, 136, 137, 138, 139, 140, 141, 142, 143, 144, 145, 146, 147, 148, 149, 150, 151, 152, 153, 154, 155],
      "AcquisitionTime": ["182511.275000", "182513.275000", "182515.275000", "182517.275000", "182519.275000", "182521.275000", "182523.275000", "182525.275000", "182527.275000", "182529.275000", "182531.275000", "182533.275000", "182535.275000", "182537.275000", "182539.275000", "182541.275000", "182543.275000", "182545.275000", "182547.275000", "182549.275000", "182551.275000", "182553.275000", "182555.275000", "182557.275000", "182559.275000", "182601.275000", "182603.275000", "182605.275000", "182607.275000", "182609.275000", "182611.275000", "182613.275000", "182615.275000", "182617.275000", "182619.275000", "182621.275000", "182623.275000", "182625.275000", "182627.275000", "182629.275000", "182631.275000", "182633.275000", "182635.275000", "182637.275000", "182639.275000", "182641.275000", "182643.275000", "182645.275000", "182647.275000", "182649.275000", "182651.275000", "182653.275000", "182655.275000", "182657.275000", "182659.275000", "182701.275000", "182703.275000", "182705.275000", "182707.275000", "182709.275000", "182711.275000", "182713.275000", "182715.275000", "182717.275000", "182719.275000", "182721.275000", "182723.275000", "182725.275000", "182727.275000", "182729.275000", "182731.275000", "182733.275000", "182735.275000", "182737.275000", "182739.275000", "182741.275000", "182743.275000", "182745.275000", "182747.275000", "182749.275000", "182751.275000", "182753.275000", "182755.275000", "182757.275000", "182759.275000", "182801.275000", "182803.275000", "182805.275000", "182807.275000", "182809.275000", "182811.275000", "182813.275000", "182815.275000", "182817.275000", "182819.275000", "182821.275000", "182823.275000", "182825.275000", "182827.275000", "182829.275000", "182831.275000", "182833.275000", "182835.275000", "182837.275000", "182839.275000", "182841.275000", "182843.275000", "182845.275000", "182847.275000", "182849.275000", "182851.275000", "182853.275000", "182855.275000", "182857.275000", "182859.275000", "182901.275000", "182903.275000", "182905.275000", "182907.275000", "182909.275000", "182911.275000", "182913.275000", "182915.275000", "182917.275000", "182919.275000", "182921.275000", "182923.275000", "182925.275000", "182927.275000", "182929.275000", "182931.275000", "182933.275000", "182935.275000", "182937.275000", "182939.275000", "182941.275000", "182943.275000", "182945.275000", "182947.275000", "182949.275000", "182951.275000", "182953.275000", "182955.275000", "182957.275000", "182959.275000", "183001.275000", "183003.275000", "183005.275000", "183007.275000", "183009.275000", "183011.275000", "183013.275000", "183015.275000", "183017.275000", "183019.275000"],
      "ContentTime": ["182608.046000", "182608.073000", "182608.075000", "182608.078000", "182608.081000", "182608.083000", "182608.086000", "182608.094000", "182608.097000", "182608.099000", "182608.102000", "182608.105000", "182608.107000", "182608.110000", "182608.113000", "182608.116000", "182608.118000", "182608.121000", "182608.123000", "182608.126000", "182608.129000", "182608.132000", "182608.134000", "182608.137000", "182608.143000", "182608.146000", "182608.148000", "182648.031000", "182648.035000", "182648.038000", "182648.041000", "182648.043000", "182648.046000", "182648.049000", "182648.051000", "182648.054000", "182648.057000", "182648.065000", "182648.068000", "182648.070000", "182648.073000", "182648.076000", "182648.079000", "182648.082000", "182648.084000", "182648.087000", "182648.090000", "182728.030000", "182728.033000", "182728.078000", "182728.086000", "182728.089000", "182728.092000", "182728.094000", "182728.097000", "182728.100000", "182728.103000", "182728.105000", "182728.108000", "182728.110000", "182728.113000", "182728.116000", "182728.119000", "182728.121000", "182728.124000", "182728.127000", "182728.129000", "182808.030000", "182808.034000", "182808.037000", "182808.040000", "182808.043000", "182808.045000", "182808.048000", "182808.051000", "182808.054000", "182808.057000", "182808.060000", "182808.062000", "182808.065000", "182808.068000", "182808.070000", "182808.073000", "182808.076000", "182808.078000", "182808.081000", "182808.084000", "182848.031000", "182848.034000", "182848.037000", "182848.040000", "182848.042000", "182848.045000", "182848.048000", "182848.050000", "182848.053000", "182848.056000", "182848.058000", "182848.061000", "182848.064000", "182848.066000", "182848.069000", "182848.072000", "182848.074000", "182848.077000", "182848.080000", "182848.083000", "182928.031000", "182928.034000", "182928.037000", "182928.040000", "182928.043000", "182928.046000", "182928.048000", "182928.051000", "182928.054000", "182928.056000", "182928.059000", "182928.062000", "182928.065000", "182928.068000", "182928.070000", "182928.073000", "182928.076000", "182928.079000", "182928.082000", "182928.084000", "183008.031000", "183008.109000", "183008.111000", "183008.117000", "183008.120000", "183008.123000", "183008.125000", "183008.129000", "183008.132000", "183008.135000", "183008.137000", "183008.140000", "183008.143000", "183008.146000", "183008.148000", "183008.151000", "183008.154000", "183008.157000", "183008.159000", "183008.162000", "183022.844000", "183022.847000", "183022.850000", "183022.853000", "183022.855000", "183022.858000", "183022.861000", "183022.863000"],
      "InstanceCreationTime": ["182608.046000", "182608.073000", "182608.075000", "182608.078000", "182608.081000", "182608.083000", "182608.086000", "182608.094000", "182608.097000", "182608.099000", "182608.102000", "182608.105000", "182608.107000", "182608.110000", "182608.113000", "182608.116000", "182608.118000", "182608.121000", "182608.123000", "182608.126000", "182608.129000", "182608.132000", "182608.134000", "182608.137000", "182608.143000", "182608.146000", "182608.148000", "182648.031000", "182648.035000", "182648.038000", "182648.041000", "182648.043000", "182648.046000", "182648.049000", "182648.051000", "182648.054000", "182648.057000", "182648.065000", "182648.068000", "182648.070000", "182648.073000", "182648.076000", "182648.079000", "182648.082000", "182648.084000", "182648.087000", "182648.090000", "182728.030000", "182728.033000", "182728.078000", "182728.086000", "182728.089000", "182728.092000", "182728.094000", "182728.097000", "182728.100000", "182728.103000", "182728.105000", "182728.108000", "182728.110000", "182728.113000", "182728.116000", "182728.119000", "182728.121000", "182728.124000", "182728.127000", "182728.129000", "182808.030000", "182808.034000", "182808.037000", "182808.040000", "182808.043000", "182808.045000", "182808.048000", "182808.051000", "182808.054000", "182808.057000", "182808.060000", "182808.062000", "182808.065000", "182808.068000", "182808.070000", "182808.073000", "182808.076000", "182808.078000", "182808.081000", "182808.084000", "182848.031000", "182848.034000", "182848.037000", "182848.040000", "182848.042000", "182848.045000", "182848.048000", "182848.050000", "182848.053000", "182848.056000", "182848.058000", "182848.061000", "182848.064000", "182848.066000", "182848.069000", "182848.072000", "182848.074000", "182848.077000", "182848.080000", "182848.083000", "182928.031000", "182928.034000", "182928.037000", "182928.040000", "182928.043000", "182928.046000", "182928.048000", "182928.051000", "182928.054000", "182928.056000", "182928.059000", "182928.062000", "182928.065000", "182928.068000", "182928.070000", "182928.073000", "182928.076000", "182928.079000", "182928.082000", "182928.084000", "183008.031000", "183008.109000", "183008.111000", "183008.117000", "183008.120000", "183008.123000", "183008.125000", "183008.129000", "183008.132000", "183008.135000", "183008.137000", "183008.140000", "183008.143000", "183008.146000", "183008.148000", "183008.151000", "183008.154000", "183008.157000", "183008.159000", "183008.162000", "183022.844000", "183022.847000", "183022.850000", "183022.853000", "183022.855000", "183022.858000", "183022.861000", "183022.863000"],
      "InstanceNumber": [1, 2, 3, 4, 5, 6, 7, 8, 9, 10, 11, 12, 13, 14, 15, 16, 17, 18, 19, 20, 21, 22, 23, 24, 25, 26, 27, 28, 29, 30, 31, 32, 33, 34, 35, 36, 37, 38, 39, 40, 41, 42, 43, 44, 45, 46, 47, 48, 49, 50, 51, 52, 53, 54, 55, 56, 57, 58, 59, 60, 61, 62, 63, 64, 65, 66, 67, 68, 69, 70, 71, 72, 73, 74, 75, 76, 77, 78, 79, 80, 81, 82, 83, 84, 85, 86, 87, 88, 89, 90, 91, 92, 93, 94, 95, 96, 97, 98, 99, 100, 101, 102, 103, 104, 105, 106, 107, 108, 109, 110, 111, 112, 113, 114, 115, 116, 117, 118, 119, 120, 121, 122, 123, 124, 125, 126, 127, 128, 129, 130, 131, 132, 133, 134, 135, 136, 137, 138, 139, 140, 141, 142, 143, 144, 145, 146, 147, 148, 149, 150, 151, 152, 153, 154, 155],
      "LargestImagePixelValue": [978, 1120, 1177, 1177, 929, 930, 937, 954, 990, 1294, 986, 962, 1042, 1119, 922, 926, 1212, 942, 965, 992, 1025, 1187, 933, 960, 1199, 1007, 947, 989, 1155, 944, 934, 938, 1230, 967, 972, 956, 1026, 1126, 939, 937, 930, 958, 1163, 1071, 935, 935, 978, 938, 1038, 1331, 933, 955, 977, 1232, 1036, 950, 946, 1198, 998, 925, 938, 1098, 942, 938, 1265, 939, 999, 1191, 990, 928, 1214, 980, 1020, 982, 996, 1225, 936, 991, 1103, 1144, 964, 915, 1256, 934, 996, 1221, 962, 928, 1137, 1056, 956, 1239, 924, 998, 1262, 940, 955, 965, 1184, 945, 958, 1199, 1062, 921, 1001, 1164, 910, 940, 971, 1096, 1282, 1028, 930, 930, 1058, 1242, 1010, 934, 1240, 925, 926, 980, 1207, 945, 951, 1181, 1110, 924, 954, 955, 1283, 1010, 946, 962, 1158, 935, 955, 996, 1076, 1194, 996, 955, 999, 1253, 933, 985, 931, 984, 1180, 925, 953, 1199, 1000, 949, 965],
      "WindowCenter": [511.0, 510.0, 510.0, 510.0, 507.0, 507.0, 508.0, 508.0, 509.0, 513.0, 509.0, 508.0, 509.0, 511.0, 508.0, 508.0, 511.0, 509.0, 510.0, 509.0, 509.0, 510.0, 507.0, 508.0, 510.0, 508.0, 508.0, 508.0, 510.0, 507.0, 508.0, 509.0, 512.0, 509.0, 508.0, 509.0, 510.0, 510.0, 509.0, 509.0, 509.0, 509.0, 511.0, 510.0, 508.0, 508.0, 509.0, 509.0, 511.0, 512.0, 508.0, 508.0, 509.0, 512.0, 511.0, 510.0, 510.0, 512.0, 510.0, 509.0, 508.0, 510.0, 509.0, 510.0, 513.0, 512.0, 510.0, 511.0, 509.0, 507.0, 511.0, 510.0, 510.0, 510.0, 510.0, 512.0, 509.0, 509.0, 511.0, 510.0, 509.0, 508.0, 511.0, 508.0, 508.0, 510.0, 508.0, 509.0, 511.0, 510.0, 508.0, 511.0, 509.0, 509.0, 513.0, 510.0, 510.0, 510.0, 512.0, 510.0, 510.0, 512.0, 511.0, 509.0, 510.0, 512.0, 510.0, 510.0, 510.0, 512.0, 514.0, 512.0, 510.0, 510.0, 511.0, 512.0, 509.0, 508.0, 511.0, 508.0, 508.0, 510.0, 511.0, 509.0, 509.0, 511.0, 510.0, 509.0, 509.0, 509.0, 512.0, 509.0, 508.0, 508.0, 510.0, 508.0, 508.0, 509.0, 510.0, 511.0, 509.0, 507.0, 509.0, 512.0, 509.0, 510.0, 508.0, 509.0, 511.0, 507.0, 508.0, 510.0, 509.0, 508.0, 508.0],
      "WindowWidth": [1064.0, 1061.0, 1060.0, 1060.0, 1056.0, 1056.0, 1056.0, 1058.0, 1060.0, 1065.0, 1059.0, 1057.0, 1059.0, 1061.0, 1057.0, 1057.0, 1062.0, 1059.0, 1060.0, 1059.0, 1059.0, 1060.0, 1056.0, 1056.0, 1060.0, 1058.0, 1057.0, 1058.0, 1059.0, 1056.0, 1057.0, 1058.0, 1063.0, 1059.0, 1057.0, 1059.0, 1060.0, 1061.0, 1059.0, 1059.0, 1059.0, 1059.0, 1061.0, 1060.0, 1057.0, 1058.0, 1058.0, 1059.0, 1062.0, 1065.0, 1057.0, 1057.0, 1058.0, 1064.0, 1062.0, 1061.0, 1060.0, 1064.0, 1061.0, 1059.0, 1058.0, 1061.0, 1059.0, 1060.0, 1065.0, 1065.0, 1062.0, 1063.0, 1059.0, 1056.0, 1062.0, 1062.0, 1061.0, 1061.0, 1061.0, 1064.0, 1060.0, 1060.0, 1061.0, 1061.0, 1058.0, 1057.0, 1062.0, 1058.0, 1058.0, 1061.0, 1058.0, 1059.0, 1061.0, 1060.0, 1057.0, 1063.0, 1059.0, 1059.0, 1064.0, 1060.0, 1061.0, 1060.0, 1064.0, 1061.0, 1061.0, 1064.0, 1063.0, 1060.0, 1060.0, 1064.0, 1061.0, 1061.0, 1062.0, 1064.0, 1067.0, 1064.0, 1062.0, 1061.0, 1062.0, 1064.0, 1060.0, 1056.0, 1062.0, 1057.0, 1058.0, 1060.0, 1062.0, 1060.0, 1058.0, 1061.0, 1061.0, 1058.0, 1060.0, 1059.0, 1064.0, 1058.0, 1057.0, 1058.0, 1060.0, 1057.0, 1057.0, 1059.0, 1060.0, 1062.0, 1058.0, 1056.0, 1058.0, 1063.0, 1059.0, 1060.0, 1058.0, 1059.0, 1062.0, 1056.0, 1057.0, 1060.0, 1059.0, 1057.0, 1057.0]
    },
    "slices": {}
  }
}