{
  "AcquisitionMatrixPE": 64,
  "AcquisitionNumber": 1,
  "AcquisitionTime": "17:54:11.695000",
  "BandwidthPerPixelPhaseEncode": 40.064,
  "BaseResolution": 64,
  "BodyPartExamined": "BRAIN",
  "ConsistencyInfo": "N4_VD13D_LATEST_20130810",
  "ConversionSoftware": "dcm2niix",
  "ConversionSoftwareVersion": "v1.0.20191031",
  "DerivedVendorReportedEchoSpacing": 0.000780002,
  "DeviceSerialNumber": "67007",
  "DwellTime": 5.3e-06,
  "EchoTime": 0.03,
  "EchoTrainLength": 31,
  "EffectiveEchoSpacing": 0.000390001,
  "FlipAngle": 75,
  "ImageOrientationPatientDICOM": [0.999976, -0.00545748, -0.00416111, 0.00523591, 0.998658, -0.0515173],
  "ImageType": [
    "ORIGINAL",
    "PRIMARY",
    "M",
    "ND",
    "NORM",
    "MOSAIC"
],
  "ImagingFrequency": 123.211,
  "InPlanePhaseEncodingDirectionDICOM": "ROW",
  "InstitutionAddress": "Perth_Drive_100_London_Ontario_CA_N6A_5K8",
  "InstitutionName": "Robarts-CFMM",
  "InstitutionalDepartmentName": "CFMM",
  "MRAcquisitionType": "2D",
  "MagneticFieldStrength": 3,
  "Manufacturer": "Siemens",
  "ManufacturersModelName": "Prisma_fit",
  "Modality": "MR",
  "ParallelReductionFactorInPlane": 2,
  "PartialFourier": 1,
  "PatientPosition": "HFS",
  "PercentPhaseFOV": 100,
  "PhaseEncodingDirection": "i",
  "PhaseEncodingSteps": 63,
  "PhaseResolution": 1,
  "PixelBandwidth": 1475,
  "ProcedureStepDescription": "Owen_Naci",
  "ProtocolName": "Resting_State_full_sed",
  "PulseSequenceDetails": "%SiemensSeq%_ep2d_bold",
  "ReceiveCoilActiveElements": "HEA;HEP",
  "ReceiveCoilName": "Head_32",
  "ReconMatrixPE": 64,
  "RefLinesPE": 24,
  "RepetitionTime": 2,
  "SAR": 0.0815641,
  "ScanOptions": "FS",
  "ScanningSequence": "EP",
  "SequenceName": "_epfid2d1_64",
  "SequenceVariant": "SK",
  "SeriesDescription": "Resting_State_full_sed",
  "SeriesNumber": 14,
  "ShimSetting": [5239, -6199, -3811, 375, 54, -181, 73, 34],
  "SliceThickness": 3,
  "SliceTiming": [1.92, 1.86, 1.8, 1.74, 1.68, 1.62, 1.56, 1.5, 1.44, 1.38, 1.32, 1.26, 1.2, 1.14, 1.08, 1.02, 0.96, 0.9, 0.84, 0.78, 0.72, 0.66, 0.6, 0.54, 0.48, 0.42, 0.36, 0.3, 0.24, 0.18, 0.12, 0.06, 0],
  "SoftwareVersions": "syngo_MR_D13D",
  "SpacingBetweenSlices": 3.75,
  "StationName": "AWP67007",
  "TaskName": "rest",
  "TotalReadoutTime": 0.0245701,
  "TxRefAmp": 277.962,
  "dcmmeta_affine": [
    [-2.999929428100586, 0.01570773869752884, -0.016637537628412247, 87.11847686767578],
    [0.01637244038283825, 2.9959750175476074, -0.1931036412715912, -77.91716766357422],
    [-0.012483314611017704, 0.1545519083738327, 3.744987964630127, -41.56442642211914],
    [0.0, 0.0, 0.0, 1.0]
],
  "dcmmeta_reorient_transform": [
    [0.0, -1.0, 0.0, 63.0],
    [1.0, 0.0, 0.0, 0.0],
    [0.0, 0.0, 1.0, 0.0],
    [0.0, 0.0, 0.0, 1.0]
],
  "dcmmeta_shape": [64, 64, 33, 136],
  "dcmmeta_slice_dim": 2,
  "dcmmeta_version": 0.6,
  "global": {
    "const": {
      "AcquisitionMatrix": [0, 64, 64, 0],
      "AngioFlag": "N",
      "BitsAllocated": 16,
      "BitsStored": 12,
      "BodyPartExamined": "BRAIN",
      "Columns": 384,
      "EchoNumbers": 1,
      "EchoTime": 30.0,
      "EchoTrainLength": 31,
      "FlipAngle": 75.0,
      "HighBit": 11,
      "ImageOrientationPatient": [0.99997645028052, -0.0054574802988, -0.0041611048006, 0.00523591282566, 0.99865837642263, -0.0515173021207],
      "ImagePositionPatient": [-570.61000051622, -587.56569553745, -5.1020205112361],
      "ImageType": [
        "ORIGINAL",
        "PRIMARY",
        "M",
        "ND",
        "NORM",
        "MOSAIC"
],
      "ImagedNucleus": "1H",
      "ImagingFrequency": 123.211248,
      "InPlanePhaseEncodingDirection": "ROW",
      "MRAcquisitionType": "2D",
      "MagneticFieldStrength": 3.0,
      "Manufacturer": "SIEMENS",
      "ManufacturerModelName": "Prisma_fit",
      "Modality": "MR",
      "NumberOfAverages": 1.0,
      "NumberOfPhaseEncodingSteps": 63,
      "PercentPhaseFieldOfView": 100.0,
      "PercentSampling": 100.0,
      "PerformedProcedureStepStartTime": "154836.213000",
      "PhotometricInterpretation": "MONOCHROME2",
      "PixelBandwidth": 1475.0,
      "PixelRepresentation": 0,
      "PixelSpacing": [3.0, 3.0],
      "ProtocolName": "Resting State_full sed",
      "RepetitionTime": 2000.0,
      "Rows": 384,
      "SAR": 0.08156405098741,
      "SamplesPerPixel": 1,
      "ScanOptions": "FS",
      "ScanningSequence": "EP",
      "SequenceName": "*epfid2d1_64",
      "SequenceVariant": "SK",
      "SeriesDescription": "Resting State_full sed",
      "SeriesNumber": 14,
      "SeriesTime": "175457.601000",
      "SliceLocation": -37.883098692512,
      "SliceThickness": 3.0,
      "SmallestImagePixelValue": 0,
      "SoftwareVersions": "syngo MR D13D",
      "SpacingBetweenSlices": 3.7500000906697,
      "SpecificCharacterSet": "ISO_IR 100",
      "StudyID": "1",
      "StudyTime": "154836.109000",
      "TimeOfLastCalibration": ["123723.000000", "123723.000000"],
      "TransmitCoilName": "Body",
      "VariableFlipAngleFlag": "N",
      "WindowCenterWidthExplanation": "Algo1",
      "dBdt": 0.0},
    "slices": {}
  },
  "time": {
    "samples": {
      "AcquisitionNumber": [1, 3, 5, 7, 9, 10, 12, 14, 15, 16, 18, 19, 21, 25, 26, 27, 29, 30, 32, 34, 36, 37, 39, 40, 41, 43, 44, 45, 46, 47, 48, 49, 51, 57, 59, 60, 61, 62, 70, 71, 72, 73, 74, 75, 76, 80, 84, 85, 87, 88, 89, 97, 98, 99, 103, 105, 107, 109, 110, 114, 117, 119, 121, 123, 125, 127, 129, 130, 132, 133, 134, 137, 139, 140, 141, 150, 151, 152, 153, 154, 155, 157, 163, 164, 165, 166, 167, 168, 169, 175, 176, 177, 178, 179, 180, 182, 183, 185, 186, 187, 189, 190, 192, 194, 195, 197, 199, 201, 204, 206, 208, 211, 213, 215, 219, 223, 225, 226, 227, 228, 229, 231, 238, 239, 240, 241, 243, 245, 248, 250, 251, 252, 253, 254, 255, 256],
      "AcquisitionTime": ["175411.695000", "175415.695000", "175419.695000", "175423.695000", "175427.695000", "175429.695000", "175433.695000", "175437.695000", "175439.695000", "175441.695000", "175445.695000", "175447.695000", "175451.695000", "175459.695000", "175501.695000", "175503.695000", "175507.695000", "175509.695000", "175513.695000", "175517.695000", "175521.695000", "175523.695000", "175527.695000", "175529.695000", "175531.695000", "175535.695000", "175537.695000", "175539.695000", "175541.695000", "175543.695000", "175545.695000", "175547.695000", "175551.695000", "175603.695000", "175607.695000", "175609.695000", "175611.695000", "175613.695000", "175629.695000", "175631.695000", "175633.695000", "175635.695000", "175637.695000", "175639.695000", "175641.695000", "175649.695000", "175657.695000", "175659.695000", "175703.695000", "175705.695000", "175707.695000", "175723.695000", "175725.695000", "175727.695000", "175735.695000", "175739.695000", "175743.695000", "175747.695000", "175749.695000", "175757.695000", "175803.695000", "175807.695000", "175811.695000", "175815.695000", "175819.695000", "175823.695000", "175827.695000", "175829.695000", "175833.695000", "175835.695000", "175837.695000", "175843.695000", "175847.695000", "175849.695000", "175851.695000", "175909.697500", "175911.697500", "175913.697500", "175915.697500", "175917.697500", "175919.697500", "175923.697500", "175935.697500", "175937.697500", "175939.697500", "175941.697500", "175943.697500", "175945.697500", "175947.697500", "175959.697500", "180001.697500", "180003.697500", "180005.697500", "180007.697500", "180009.697500", "180013.697500", "180015.697500", "180019.697500", "180021.697500", "180023.697500", "180027.697500", "180029.697500", "180033.697500", "180037.697500", "180039.697500", "180043.697500", "180047.697500", "180051.697500", "180057.697500", "180101.697500", "180105.697500", "180111.697500", "180115.697500", "180119.697500", "180127.697500", "180135.697500", "180139.697500", "180141.697500", "180143.697500", "180145.697500", "180147.697500", "180151.697500", "180205.697500", "180207.697500", "180209.697500", "180211.697500", "180215.697500", "180219.697500", "180225.697500", "180229.697500", "180231.697500", "180233.697500", "180235.697500", "180237.697500", "180239.697500", "180241.697500"],
      "ContentTime": ["175457.605000", "175457.617000", "175457.627000", "175457.633000", "175457.638000", "175457.641000", "175457.646000", "175457.652000", "175457.658000", "175457.661000", "175457.666000", "175457.669000", "175457.674000", "175537.604000", "175537.606000", "175537.610000", "175537.615000", "175537.618000", "175537.623000", "175537.632000", "175537.638000", "175537.641000", "175537.647000", "175537.649000", "175537.652000", "175617.599000", "175617.602000", "175617.605000", "175617.607000", "175617.610000", "175617.613000", "175617.616000", "175617.622000", "175617.638000", "175617.643000", "175617.646000", "175617.649000", "175617.652000", "175657.618000", "175657.621000", "175657.624000", "175657.627000", "175657.630000", "175657.633000", "175657.636000", "175657.646000", "175737.603000", "175737.606000", "175737.612000", "175737.614000", "175737.617000", "175737.639000", "175737.642000", "175737.645000", "175817.598000", "175817.604000", "175817.610000", "175817.615000", "175817.618000", "175817.629000", "175817.638000", "175817.643000", "175817.649000", "175857.598000", "175857.604000", "175857.610000", "175857.616000", "175857.619000", "175857.625000", "175857.627000", "175857.630000", "175857.639000", "175857.644000", "175857.647000", "175857.650000", "175937.623000", "175937.626000", "175937.629000", "175937.632000", "175937.635000", "175937.639000", "175937.644000", "180017.599000", "180017.602000", "180017.605000", "180017.608000", "180017.611000", "180017.613000", "180017.616000", "180017.634000", "180017.636000", "180017.639000", "180017.642000", "180017.644000", "180017.647000", "180017.652000", "180057.599000", "180057.605000", "180057.608000", "180057.611000", "180057.616000", "180057.619000", "180057.624000", "180057.630000", "180057.633000", "180057.638000", "180057.644000", "180057.649000", "180117.602000", "180117.608000", "180117.614000", "180117.622000", "180157.599000", "180157.605000", "180157.616000", "180157.627000", "180157.633000", "180157.636000", "180157.639000", "180157.641000", "180157.644000", "180157.650000", "180237.621000", "180237.624000", "180237.626000", "180237.629000", "180237.635000", "180237.640000", "180237.649000", "180237.654000", "180237.657000", "180237.660000", "180245.477000", "180245.480000", "180245.483000", "180245.486000"],
      "InstanceCreationTime": ["175457.605000", "175457.617000", "175457.627000", "175457.633000", "175457.638000", "175457.641000", "175457.646000", "175457.652000", "175457.658000", "175457.661000", "175457.666000", "175457.669000", "175457.674000", "175537.604000", "175537.606000", "175537.610000", "175537.615000", "175537.618000", "175537.623000", "175537.632000", "175537.638000", "175537.641000", "175537.647000", "175537.649000", "175537.652000", "175617.599000", "175617.602000", "175617.605000", "175617.607000", "175617.610000", "175617.613000", "175617.616000", "175617.622000", "175617.638000", "175617.643000", "175617.646000", "175617.649000", "175617.652000", "175657.618000", "175657.621000", "175657.624000", "175657.627000", "175657.630000", "175657.633000", "175657.636000", "175657.646000", "175737.603000", "175737.606000", "175737.612000", "175737.614000", "175737.617000", "175737.639000", "175737.642000", "175737.645000", "175817.598000", "175817.604000", "175817.610000", "175817.615000", "175817.618000", "175817.629000", "175817.638000", "175817.643000", "175817.649000", "175857.598000", "175857.604000", "175857.610000", "175857.616000", "175857.619000", "175857.625000", "175857.627000", "175857.630000", "175857.639000", "175857.644000", "175857.647000", "175857.650000", "175937.623000", "175937.626000", "175937.629000", "175937.632000", "175937.635000", "175937.639000", "175937.644000", "180017.599000", "180017.602000", "180017.605000", "180017.608000", "180017.611000", "180017.613000", "180017.616000", "180017.634000", "180017.636000", "180017.639000", "180017.642000", "180017.644000", "180017.647000", "180017.652000", "180057.599000", "180057.605000", "180057.608000", "180057.611000", "180057.616000", "180057.619000", "180057.624000", "180057.630000", "180057.633000", "180057.638000", "180057.644000", "180057.649000", "180117.602000", "180117.608000", "180117.614000", "180117.622000", "180157.599000", "180157.605000", "180157.616000", "180157.627000", "180157.633000", "180157.636000", "180157.639000", "180157.641000", "180157.644000", "180157.650000", "180237.621000", "180237.624000", "180237.626000", "180237.629000", "180237.635000", "180237.640000", "180237.649000", "180237.654000", "180237.657000", "180237.660000", "180245.477000", "180245.480000", "180245.483000", "180245.486000"],
      "InstanceNumber": [1, 3, 5, 7, 9, 10, 12, 14, 15, 16, 18, 19, 21, 25, 26, 27, 29, 30, 32, 34, 36, 37, 39, 40, 41, 43, 44, 45, 46, 47, 48, 49, 51, 57, 59, 60, 61, 62, 70, 71, 72, 73, 74, 75, 76, 80, 84, 85, 87, 88, 89, 97, 98, 99, 103, 105, 107, 109, 110, 114, 117, 119, 121, 123, 125, 127, 129, 130, 132, 133, 134, 137, 139, 140, 141, 150, 151, 152, 153, 154, 155, 157, 163, 164, 165, 166, 167, 168, 169, 175, 176, 177, 178, 179, 180, 182, 183, 185, 186, 187, 189, 190, 192, 194, 195, 197, 199, 201, 204, 206, 208, 211, 213, 215, 219, 223, 225, 226, 227, 228, 229, 231, 238, 239, 240, 241, 243, 245, 248, 250, 251, 252, 253, 254, 255, 256],
      "LargestImagePixelValue": [1094, 1017, 1321, 1005, 1004, 992, 1013, 1353, 1066, 973, 1152, 1005, 1320, 1014, 1010, 1149, 988, 1031, 971, 1296, 989, 1334, 1008, 1345, 1002, 1194, 1179, 987, 1123, 1144, 989, 1344, 1034, 1003, 1164, 1228, 1034, 973, 1292, 1033, 991, 1043, 1274, 1029, 1023, 1051, 945, 968, 1037, 1028, 988, 1039, 976, 1142, 1067, 1135, 1101, 1163, 1003, 1014, 1124, 944, 996, 1186, 1012, 1338, 1005, 1210, 1065, 982, 1311, 965, 1007, 1028, 1340, 1141, 1286, 1069, 1137, 1333, 1030, 976, 1024, 985, 1294, 1057, 1026, 1333, 1003, 1085, 1004, 1297, 1127, 1061, 1067, 1041, 1301, 1048, 1339, 983, 1217, 997, 1294, 1027, 1279, 1270, 1084, 1149, 993, 1326, 1070, 952, 1016, 1406, 1020, 1062, 951, 1052, 1307, 947, 1041, 982, 978, 1312, 987, 1201, 1087, 1067, 1000, 1279, 979, 1041, 1288, 1016, 1039, 1270],
      "WindowCenter": [522.0, 522.0, 523.0, 519.0, 519.0, 519.0, 520.0, 524.0, 520.0, 520.0, 522.0, 521.0, 524.0, 522.0, 521.0, 523.0, 521.0, 521.0, 521.0, 523.0, 521.0, 524.0, 521.0, 524.0, 521.0, 522.0, 523.0, 521.0, 522.0, 523.0, 522.0, 524.0, 522.0, 522.0, 523.0, 524.0, 522.0, 522.0, 524.0, 522.0, 522.0, 522.0, 524.0, 522.0, 523.0, 522.0, 521.0, 521.0, 522.0, 521.0, 521.0, 521.0, 521.0, 523.0, 522.0, 524.0, 524.0, 525.0, 522.0, 524.0, 525.0, 523.0, 524.0, 525.0, 524.0, 527.0, 524.0, 525.0, 524.0, 523.0, 526.0, 523.0, 523.0, 524.0, 526.0, 526.0, 526.0, 523.0, 524.0, 525.0, 522.0, 522.0, 523.0, 523.0, 526.0, 524.0, 524.0, 526.0, 524.0, 524.0, 523.0, 526.0, 525.0, 524.0, 523.0, 523.0, 526.0, 522.0, 525.0, 522.0, 524.0, 523.0, 526.0, 524.0, 525.0, 525.0, 524.0, 524.0, 523.0, 526.0, 524.0, 524.0, 525.0, 527.0, 523.0, 524.0, 523.0, 524.0, 527.0, 524.0, 525.0, 524.0, 525.0, 527.0, 524.0, 526.0, 524.0, 524.0, 523.0, 526.0, 523.0, 525.0, 526.0, 525.0, 525.0, 528.0],
      "WindowWidth": [1085.0, 1083.0, 1084.0, 1078.0, 1078.0, 1079.0, 1081.0, 1086.0, 1080.0, 1080.0, 1083.0, 1082.0, 1086.0, 1083.0, 1081.0, 1085.0, 1082.0, 1083.0, 1082.0, 1085.0, 1081.0, 1086.0, 1081.0, 1086.0, 1081.0, 1083.0, 1085.0, 1081.0, 1084.0, 1084.0, 1083.0, 1087.0, 1082.0, 1083.0, 1085.0, 1087.0, 1084.0, 1083.0, 1086.0, 1083.0, 1082.0, 1084.0, 1086.0, 1084.0, 1084.0, 1083.0, 1081.0, 1082.0, 1083.0, 1082.0, 1082.0, 1082.0, 1081.0, 1084.0, 1084.0, 1086.0, 1086.0, 1089.0, 1084.0, 1086.0, 1088.0, 1085.0, 1087.0, 1089.0, 1087.0, 1091.0, 1087.0, 1089.0, 1086.0, 1086.0, 1090.0, 1085.0, 1086.0, 1087.0, 1090.0, 1090.0, 1090.0, 1086.0, 1087.0, 1089.0, 1083.0, 1083.0, 1086.0, 1085.0, 1091.0, 1087.0, 1087.0, 1090.0, 1087.0, 1088.0, 1086.0, 1090.0, 1088.0, 1087.0, 1086.0, 1085.0, 1090.0, 1084.0, 1088.0, 1084.0, 1086.0, 1085.0, 1090.0, 1087.0, 1089.0, 1089.0, 1087.0, 1087.0, 1086.0, 1090.0, 1087.0, 1087.0, 1089.0, 1092.0, 1086.0, 1088.0, 1087.0, 1087.0, 1092.0, 1087.0, 1088.0, 1088.0, 1089.0, 1093.0, 1088.0, 1091.0, 1087.0, 1087.0, 1086.0, 1090.0, 1087.0, 1088.0, 1091.0, 1089.0, 1088.0, 1094.0]
    },
    "slices": {}
  }
}