{
  "AcquisitionMatrixPE": 64,
  "AcquisitionNumber": 1,
  "AcquisitionTime": "17:54:11.695000",
  "BandwidthPerPixelPhaseEncode": 40.064,
  "BaseResolution": 64,
  "BodyPartExamined": "BRAIN",
  "ConsistencyInfo": "N4_VD13D_LATEST_20130810",
  "ConversionSoftware": "dcm2niix",
  "ConversionSoftwareVersion": "v1.0.20191031",
  "DerivedVendorReportedEchoSpacing": 0.000780002,
  "DeviceSerialNumber": "67007",
  "DwellTime": 5.3e-06,
  "EchoTime": 0.03,
  "EchoTrainLength": 31,
  "EffectiveEchoSpacing": 0.000390001,
  "FlipAngle": 75,
  "ImageOrientationPatientDICOM": [0.999976, -0.00545748, -0.00416111, 0.00523591, 0.998658, -0.0515173],
  "ImageType": [
    "ORIGINAL",
    "PRIMARY",
    "M",
    "ND",
    "NORM",
    "MOSAIC"
],
  "ImagingFrequency": 123.211,
  "InPlanePhaseEncodingDirectionDICOM": "ROW",
  "InstitutionAddress": "Perth_Drive_100_London_Ontario_CA_N6A_5K8",
  "InstitutionName": "Robarts-CFMM",
  "InstitutionalDepartmentName": "CFMM",
  "MRAcquisitionType": "2D",
  "MagneticFieldStrength": 3,
  "Manufacturer": "Siemens",
  "ManufacturersModelName": "Prisma_fit",
  "Modality": "MR",
  "ParallelReductionFactorInPlane": 2,
  "PartialFourier": 1,
  "PatientPosition": "HFS",
  "PercentPhaseFOV": 100,
  "PhaseEncodingDirection": "i",
  "PhaseEncodingSteps": 63,
  "PhaseResolution": 1,
  "PixelBandwidth": 1475,
  "ProcedureStepDescription": "Owen_Naci",
  "ProtocolName": "Resting_State_full_sed",
  "PulseSequenceDetails": "%SiemensSeq%_ep2d_bold",
  "ReceiveCoilActiveElements": "HEA;HEP",
  "ReceiveCoilName": "Head_32",
  "ReconMatrixPE": 64,
  "RefLinesPE": 24,
  "RepetitionTime": 2,
  "SAR": 0.0815641,
  "ScanOptions": "FS",
  "ScanningSequence": "EP",
  "SequenceName": "_epfid2d1_64",
  "SequenceVariant": "SK",
  "SeriesDescription": "Resting_State_full_sed",
  "SeriesNumber": 14,
  "ShimSetting": [5239, -6199, -3811, 375, 54, -181, 73, 34],
  "SliceThickness": 3,
  "SliceTiming": [1.92, 1.86, 1.8, 1.74, 1.68, 1.62, 1.56, 1.5, 1.44, 1.38, 1.32, 1.26, 1.2, 1.14, 1.08, 1.02, 0.96, 0.9, 0.84, 0.78, 0.72, 0.66, 0.6, 0.54, 0.48, 0.42, 0.36, 0.3, 0.24, 0.18, 0.12, 0.06, 0],
  "SoftwareVersions": "syngo_MR_D13D",
  "SpacingBetweenSlices": 3.75,
  "StationName": "AWP67007",
  "TaskName": "rest",
  "TotalReadoutTime": 0.0245701,
  "TxRefAmp": 277.962,
  "dcmmeta_affine": [
    [-2.999929428100586, 0.01570773869752884, -0.016637537628412247, 87.11847686767578],
    [0.01637244038283825, 2.9959750175476074, -0.1931036412715912, -77.91716766357422],
    [-0.012483314611017704, 0.1545519083738327, 3.744987964630127, -41.56442642211914],
    [0.0, 0.0, 0.0, 1.0]
],
  "dcmmeta_reorient_transform": [
    [0.0, -1.0, 0.0, 63.0],
    [1.0, 0.0, 0.0, 0.0],
    [0.0, 0.0, 1.0, 0.0],
    [0.0, 0.0, 0.0, 1.0]
],
  "dcmmeta_shape": [64, 64, 33, 256],
  "dcmmeta_slice_dim": 2,
  "dcmmeta_version": 0.6,
  "global": {
    "const": {
      "AcquisitionMatrix": [0, 64, 64, 0],
      "AngioFlag": "N",
      "BitsAllocated": 16,
      "BitsStored": 12,
      "BodyPartExamined": "BRAIN",
      "Columns": 384,
      "EchoNumbers": 1,
      "EchoTime": 30.0,
      "EchoTrainLength": 31,
      "FlipAngle": 75.0,
      "HighBit": 11,
      "ImageOrientationPatient": [0.99997645028052, -0.0054574802988, -0.0041611048006, 0.00523591282566, 0.99865837642263, -0.0515173021207],
      "ImagePositionPatient": [-570.61000051622, -587.56569553745, -5.1020205112361],
      "ImageType": [
        "ORIGINAL",
        "PRIMARY",
        "M",
        "ND",
        "NORM",
        "MOSAIC"
],
      "ImagedNucleus": "1H",
      "ImagingFrequency": 123.211248,
      "InPlanePhaseEncodingDirection": "ROW",
      "MRAcquisitionType": "2D",
      "MagneticFieldStrength": 3.0,
      "Manufacturer": "SIEMENS",
      "ManufacturerModelName": "Prisma_fit",
      "Modality": "MR",
      "NumberOfAverages": 1.0,
      "NumberOfPhaseEncodingSteps": 63,
      "PercentPhaseFieldOfView": 100.0,
      "PercentSampling": 100.0,
      "PerformedProcedureStepStartTime": "154836.213000",
      "PhotometricInterpretation": "MONOCHROME2",
      "PixelBandwidth": 1475.0,
      "PixelRepresentation": 0,
      "PixelSpacing": [3.0, 3.0],
      "ProtocolName": "Resting State_full sed",
      "RepetitionTime": 2000.0,
      "Rows": 384,
      "SAR": 0.08156405098741,
      "SamplesPerPixel": 1,
      "ScanOptions": "FS",
      "ScanningSequence": "EP",
      "SequenceName": "*epfid2d1_64",
      "SequenceVariant": "SK",
      "SeriesDescription": "Resting State_full sed",
      "SeriesNumber": 14,
      "SeriesTime": "175457.601000",
      "SliceLocation": -37.883098692512,
      "SliceThickness": 3.0,
      "SmallestImagePixelValue": 0,
      "SoftwareVersions": "syngo MR D13D",
      "SpacingBetweenSlices": 3.7500000906697,
      "SpecificCharacterSet": "ISO_IR 100",
      "StudyID": "1",
      "StudyTime": "154836.109000",
      "TimeOfLastCalibration": ["123723.000000", "123723.000000"],
      "TransmitCoilName": "Body",
      "VariableFlipAngleFlag": "N",
      "WindowCenterWidthExplanation": "Algo1",
      "dBdt": 0.0},
    "slices": {}
  },
  "time": {
    "samples": {
      "AcquisitionNumber": [1, 2, 3, 4, 5, 6, 7, 8, 9, 10, 11, 12, 13, 14, 15, 16, 17, 18, 19, 20, 21, 22, 23, 24, 25, 26, 27, 28, 29, 30, 31, 32, 33, 34, 35, 36, 37, 38, 39, 40, 41, 42, 43, 44, 45, 46, 47, 48, 49, 50, 51, 52, 53, 54, 55, 56, 57, 58, 59, 60, 61, 62, 63, 64, 65, 66, 67, 68, 69, 70, 71, 72, 73, 74, 75, 76, 77, 78, 79, 80, 81, 82, 83, 84, 85, 86, 87, 88, 89, 90, 91, 92, 93, 94, 95, 96, 97, 98, 99, 100, 101, 102, 103, 104, 105, 106, 107, 108, 109, 110, 111, 112, 113, 114, 115, 116, 117, 118, 119, 120, 121, 122, 123, 124, 125, 126, 127, 128, 129, 130, 131, 132, 133, 134, 135, 136, 137, 138, 139, 140, 141, 142, 143, 144, 145, 146, 147, 148, 149, 150, 151, 152, 153, 154, 155, 156, 157, 158, 159, 160, 161, 162, 163, 164, 165, 166, 167, 168, 169, 170, 171, 172, 173, 174, 175, 176, 177, 178, 179, 180, 181, 182, 183, 184, 185, 186, 187, 188, 189, 190, 191, 192, 193, 194, 195, 196, 197, 198, 199, 200, 201, 202, 203, 204, 205, 206, 207, 208, 209, 210, 211, 212, 213, 214, 215, 216, 217, 218, 219, 220, 221, 222, 223, 224, 225, 226, 227, 228, 229, 230, 231, 232, 233, 234, 235, 236, 237, 238, 239, 240, 241, 242, 243, 244, 245, 246, 247, 248, 249, 250, 251, 252, 253, 254, 255, 256],
      "AcquisitionTime": ["175411.695000", "175413.695000", "175415.695000", "175417.695000", "175419.695000", "175421.695000", "175423.695000", "175425.695000", "175427.695000", "175429.695000", "175431.695000", "175433.695000", "175435.695000", "175437.695000", "175439.695000", "175441.695000", "175443.695000", "175445.695000", "175447.695000", "175449.695000", "175451.695000", "175453.695000", "175455.695000", "175457.695000", "175459.695000", "175501.695000", "175503.695000", "175505.695000", "175507.695000", "175509.695000", "175511.695000", "175513.695000", "175515.695000", "175517.695000", "175519.695000", "175521.695000", "175523.695000", "175525.695000", "175527.695000", "175529.695000", "175531.695000", "175533.695000", "175535.695000", "175537.695000", "175539.695000", "175541.695000", "175543.695000", "175545.695000", "175547.695000", "175549.695000", "175551.695000", "175553.695000", "175555.695000", "175557.695000", "175559.695000", "175601.695000", "175603.695000", "175605.695000", "175607.695000", "175609.695000", "175611.695000", "175613.695000", "175615.695000", "175617.695000", "175619.695000", "175621.695000", "175623.695000", "175625.695000", "175627.695000", "175629.695000", "175631.695000", "175633.695000", "175635.695000", "175637.695000", "175639.695000", "175641.695000", "175643.695000", "175645.695000", "175647.695000", "175649.695000", "175651.695000", "175653.695000", "175655.695000", "175657.695000", "175659.695000", "175701.695000", "175703.695000", "175705.695000", "175707.695000", "175709.695000", "175711.695000", "175713.695000", "175715.695000", "175717.695000", "175719.695000", "175721.695000", "175723.695000", "175725.695000", "175727.695000", "175729.695000", "175731.695000", "175733.695000", "175735.695000", "175737.695000", "175739.695000", "175741.695000", "175743.695000", "175745.695000", "175747.695000", "175749.695000", "175751.695000", "175753.695000", "175755.695000", "175757.695000", "175759.695000", "175801.695000", "175803.695000", "175805.695000", "175807.695000", "175809.695000", "175811.695000", "175813.695000", "175815.695000", "175817.695000", "175819.695000", "175821.695000", "175823.695000", "175825.695000", "175827.695000", "175829.695000", "175831.695000", "175833.695000", "175835.695000", "175837.695000", "175839.695000", "175841.695000", "175843.695000", "175845.695000", "175847.695000", "175849.695000", "175851.695000", "175853.695000", "175855.695000", "175857.695000", "175859.695000", "175901.697500", "175903.697500", "175905.697500", "175907.697500", "175909.697500", "175911.697500", "175913.697500", "175915.697500", "175917.697500", "175919.697500", "175921.697500", "175923.697500", "175925.697500", "175927.697500", "175929.697500", "175931.697500", "175933.697500", "175935.697500", "175937.697500", "175939.697500", "175941.697500", "175943.697500", "175945.697500", "175947.697500", "175949.697500", "175951.697500", "175953.697500", "175955.697500", "175957.697500", "175959.697500", "180001.697500", "180003.697500", "180005.697500", "180007.697500", "180009.697500", "180011.697500", "180013.697500", "180015.697500", "180017.697500", "180019.697500", "180021.697500", "180023.697500", "180025.697500", "180027.697500", "180029.697500", "180031.697500", "180033.697500", "180035.697500", "180037.697500", "180039.697500", "180041.697500", "180043.697500", "180045.697500", "180047.697500", "180049.697500", "180051.697500", "180053.697500", "180055.697500", "180057.697500", "180059.697500", "180101.697500", "180103.697500", "180105.697500", "180107.697500", "180109.697500", "180111.697500", "180113.697500", "180115.697500", "180117.697500", "180119.697500", "180121.697500", "180123.697500", "180125.697500", "180127.697500", "180129.697500", "180131.697500", "180133.697500", "180135.697500", "180137.697500", "180139.697500", "180141.697500", "180143.697500", "180145.697500", "180147.697500", "180149.697500", "180151.697500", "180153.697500", "180155.697500", "180157.697500", "180159.697500", "180201.697500", "180203.697500", "180205.697500", "180207.697500", "180209.697500", "180211.697500", "180213.697500", "180215.697500", "180217.697500", "180219.697500", "180221.697500", "180223.697500", "180225.697500", "180227.697500", "180229.697500", "180231.697500", "180233.697500", "180235.697500", "180237.697500", "180239.697500", "180241.697500"],
      "ContentTime": ["175457.605000", "175457.613000", "175457.617000", "175457.619000", "175457.627000", "175457.630000", "175457.633000", "175457.636000", "175457.638000", "175457.641000", "175457.644000", "175457.646000", "175457.649000", "175457.652000", "175457.658000", "175457.661000", "175457.663000", "175457.666000", "175457.669000", "175457.671000", "175457.674000", "175457.677000", "175537.598000", "175537.601000", "175537.604000", "175537.606000", "175537.610000", "175537.612000", "175537.615000", "175537.618000", "175537.621000", "175537.623000", "175537.629000", "175537.632000", "175537.635000", "175537.638000", "175537.641000", "175537.643000", "175537.647000", "175537.649000", "175537.652000", "175537.655000", "175617.599000", "175617.602000", "175617.605000", "175617.607000", "175617.610000", "175617.613000", "175617.616000", "175617.619000", "175617.622000", "175617.624000", "175617.627000", "175617.630000", "175617.633000", "175617.635000", "175617.638000", "175617.641000", "175617.643000", "175617.646000", "175617.649000", "175617.652000", "175657.599000", "175657.602000", "175657.605000", "175657.608000", "175657.611000", "175657.613000", "175657.616000", "175657.618000", "175657.621000", "175657.624000", "175657.627000", "175657.630000", "175657.633000", "175657.636000", "175657.638000", "175657.641000", "175657.644000", "175657.646000", "175657.650000", "175657.652000", "175737.600000", "175737.603000", "175737.606000", "175737.609000", "175737.612000", "175737.614000", "175737.617000", "175737.620000", "175737.623000", "175737.625000", "175737.628000", "175737.631000", "175737.634000", "175737.637000", "175737.639000", "175737.642000", "175737.645000", "175737.648000", "175737.650000", "175737.661000", "175817.598000", "175817.601000", "175817.604000", "175817.607000", "175817.610000", "175817.613000", "175817.615000", "175817.618000", "175817.621000", "175817.624000", "175817.626000", "175817.629000", "175817.632000", "175817.635000", "175817.638000", "175817.641000", "175817.643000", "175817.646000", "175817.649000", "175817.651000", "175857.598000", "175857.601000", "175857.604000", "175857.607000", "175857.610000", "175857.613000", "175857.616000", "175857.619000", "175857.622000", "175857.625000", "175857.627000", "175857.630000", "175857.633000", "175857.636000", "175857.639000", "175857.641000", "175857.644000", "175857.647000", "175857.650000", "175857.652000", "175937.598000", "175937.602000", "175937.605000", "175937.607000", "175937.614000", "175937.617000", "175937.620000", "175937.623000", "175937.626000", "175937.629000", "175937.632000", "175937.635000", "175937.639000", "175937.642000", "175937.644000", "175937.647000", "175937.650000", "175937.653000", "175937.656000", "175937.659000", "180017.599000", "180017.602000", "180017.605000", "180017.608000", "180017.611000", "180017.613000", "180017.616000", "180017.619000", "180017.622000", "180017.625000", "180017.628000", "180017.631000", "180017.634000", "180017.636000", "180017.639000", "180017.642000", "180017.644000", "180017.647000", "180017.650000", "180017.652000", "180057.599000", "180057.602000", "180057.605000", "180057.608000", "180057.611000", "180057.613000", "180057.616000", "180057.619000", "180057.622000", "180057.624000", "180057.627000", "180057.630000", "180057.633000", "180057.636000", "180057.638000", "180057.641000", "180057.644000", "180057.647000", "180057.649000", "180057.652000", "180117.599000", "180117.602000", "180117.605000", "180117.608000", "180117.611000", "180117.614000", "180117.616000", "180117.619000", "180117.622000", "180117.625000", "180157.599000", "180157.602000", "180157.605000", "180157.608000", "180157.611000", "180157.614000", "180157.616000", "180157.619000", "180157.622000", "180157.625000", "180157.627000", "180157.630000", "180157.633000", "180157.636000", "180157.639000", "180157.641000", "180157.644000", "180157.647000", "180157.650000", "180157.652000", "180237.599000", "180237.602000", "180237.605000", "180237.608000", "180237.611000", "180237.621000", "180237.624000", "180237.626000", "180237.629000", "180237.632000", "180237.635000", "180237.637000", "180237.640000", "180237.643000", "180237.646000", "180237.649000", "180237.652000", "180237.654000", "180237.657000", "180237.660000", "180245.477000", "180245.480000", "180245.483000", "180245.486000"],
      "InstanceCreationTime": ["175457.605000", "175457.613000", "175457.617000", "175457.619000", "175457.627000", "175457.630000", "175457.633000", "175457.636000", "175457.638000", "175457.641000", "175457.644000", "175457.646000", "175457.649000", "175457.652000", "175457.658000", "175457.661000", "175457.663000", "175457.666000", "175457.669000", "175457.671000", "175457.674000", "175457.677000", "175537.598000", "175537.601000", "175537.604000", "175537.606000", "175537.610000", "175537.612000", "175537.615000", "175537.618000", "175537.621000", "175537.623000", "175537.629000", "175537.632000", "175537.635000", "175537.638000", "175537.641000", "175537.643000", "175537.647000", "175537.649000", "175537.652000", "175537.655000", "175617.599000", "175617.602000", "175617.605000", "175617.607000", "175617.610000", "175617.613000", "175617.616000", "175617.619000", "175617.622000", "175617.624000", "175617.627000", "175617.630000", "175617.633000", "175617.635000", "175617.638000", "175617.641000", "175617.643000", "175617.646000", "175617.649000", "175617.652000", "175657.599000", "175657.602000", "175657.605000", "175657.608000", "175657.611000", "175657.613000", "175657.616000", "175657.618000", "175657.621000", "175657.624000", "175657.627000", "175657.630000", "175657.633000", "175657.636000", "175657.638000", "175657.641000", "175657.644000", "175657.646000", "175657.650000", "175657.652000", "175737.600000", "175737.603000", "175737.606000", "175737.609000", "175737.612000", "175737.614000", "175737.617000", "175737.620000", "175737.623000", "175737.625000", "175737.628000", "175737.631000", "175737.634000", "175737.637000", "175737.639000", "175737.642000", "175737.645000", "175737.648000", "175737.650000", "175737.661000", "175817.598000", "175817.601000", "175817.604000", "175817.607000", "175817.610000", "175817.613000", "175817.615000", "175817.618000", "175817.621000", "175817.624000", "175817.626000", "175817.629000", "175817.632000", "175817.635000", "175817.638000", "175817.641000", "175817.643000", "175817.646000", "175817.649000", "175817.651000", "175857.598000", "175857.601000", "175857.604000", "175857.607000", "175857.610000", "175857.613000", "175857.616000", "175857.619000", "175857.622000", "175857.625000", "175857.627000", "175857.630000", "175857.633000", "175857.636000", "175857.639000", "175857.641000", "175857.644000", "175857.647000", "175857.650000", "175857.652000", "175937.598000", "175937.602000", "175937.605000", "175937.607000", "175937.614000", "175937.617000", "175937.620000", "175937.623000", "175937.626000", "175937.629000", "175937.632000", "175937.635000", "175937.639000", "175937.642000", "175937.644000", "175937.647000", "175937.650000", "175937.653000", "175937.656000", "175937.659000", "180017.599000", "180017.602000", "180017.605000", "180017.608000", "180017.611000", "180017.613000", "180017.616000", "180017.619000", "180017.622000", "180017.625000", "180017.628000", "180017.631000", "180017.634000", "180017.636000", "180017.639000", "180017.642000", "180017.644000", "180017.647000", "180017.650000", "180017.652000", "180057.599000", "180057.602000", "180057.605000", "180057.608000", "180057.611000", "180057.613000", "180057.616000", "180057.619000", "180057.622000", "180057.624000", "180057.627000", "180057.630000", "180057.633000", "180057.636000", "180057.638000", "180057.641000", "180057.644000", "180057.647000", "180057.649000", "180057.652000", "180117.599000", "180117.602000", "180117.605000", "180117.608000", "180117.611000", "180117.614000", "180117.616000", "180117.619000", "180117.622000", "180117.625000", "180157.599000", "180157.602000", "180157.605000", "180157.608000", "180157.611000", "180157.614000", "180157.616000", "180157.619000", "180157.622000", "180157.625000", "180157.627000", "180157.630000", "180157.633000", "180157.636000", "180157.639000", "180157.641000", "180157.644000", "180157.647000", "180157.650000", "180157.652000", "180237.599000", "180237.602000", "180237.605000", "180237.608000", "180237.611000", "180237.621000", "180237.624000", "180237.626000", "180237.629000", "180237.632000", "180237.635000", "180237.637000", "180237.640000", "180237.643000", "180237.646000", "180237.649000", "180237.652000", "180237.654000", "180237.657000", "180237.660000", "180245.477000", "180245.480000", "180245.483000", "180245.486000"],
      "InstanceNumber": [1, 2, 3, 4, 5, 6, 7, 8, 9, 10, 11, 12, 13, 14, 15, 16, 17, 18, 19, 20, 21, 22, 23, 24, 25, 26, 27, 28, 29, 30, 31, 32, 33, 34, 35, 36, 37, 38, 39, 40, 41, 42, 43, 44, 45, 46, 47, 48, 49, 50, 51, 52, 53, 54, 55, 56, 57, 58, 59, 60, 61, 62, 63, 64, 65, 66, 67, 68, 69, 70, 71, 72, 73, 74, 75, 76, 77, 78, 79, 80, 81, 82, 83, 84, 85, 86, 87, 88, 89, 90, 91, 92, 93, 94, 95, 96, 97, 98, 99, 100, 101, 102, 103, 104, 105, 106, 107, 108, 109, 110, 111, 112, 113, 114, 115, 116, 117, 118, 119, 120, 121, 122, 123, 124, 125, 126, 127, 128, 129, 130, 131, 132, 133, 134, 135, 136, 137, 138, 139, 140, 141, 142, 143, 144, 145, 146, 147, 148, 149, 150, 151, 152, 153, 154, 155, 156, 157, 158, 159, 160, 161, 162, 163, 164, 165, 166, 167, 168, 169, 170, 171, 172, 173, 174, 175, 176, 177, 178, 179, 180, 181, 182, 183, 184, 185, 186, 187, 188, 189, 190, 191, 192, 193, 194, 195, 196, 197, 198, 199, 200, 201, 202, 203, 204, 205, 206, 207, 208, 209, 210, 211, 212, 213, 214, 215, 216, 217, 218, 219, 220, 221, 222, 223, 224, 225, 226, 227, 228, 229, 230, 231, 232, 233, 234, 235, 236, 237, 238, 239, 240, 241, 242, 243, 244, 245, 246, 247, 248, 249, 250, 251, 252, 253, 254, 255, 256],
      "LargestImagePixelValue": [1094, 1318, 1017, 1154, 1321, 1032, 1005, 1335, 1004, 992, 1250, 1013, 1016, 1353, 1066, 973, 1218, 1152, 1005, 951, 1320, 999, 978, 1342, 1014, 1010, 1149, 1261, 988, 1031, 1322, 971, 1101, 1296, 979, 989, 1334, 983, 1008, 1345, 1002, 1032, 1194, 1179, 987, 1123, 1144, 989, 1344, 1027, 1034, 1088, 1221, 1000, 965, 1330, 1003, 1062, 1164, 1228, 1034, 973, 1340, 996, 1043, 1268, 1105, 986, 1015, 1292, 1033, 991, 1043, 1274, 1029, 1023, 993, 1386, 1017, 1051, 1126, 1283, 1036, 945, 968, 1375, 1037, 1028, 988, 1184, 1227, 1043, 981, 941, 1370, 1025, 1039, 976, 1142, 1245, 1139, 1008, 1067, 1388, 1135, 990, 1101, 1413, 1163, 1003, 965, 1341, 1143, 1014, 1040, 1343, 1124, 1021, 944, 1294, 996, 1095, 1186, 1288, 1012, 1079, 1338, 1132, 1005, 1210, 1327, 1065, 982, 1311, 1093, 1050, 965, 1325, 1007, 1028, 1340, 1002, 1006, 1095, 1301, 1022, 1129, 1322, 990, 1141, 1286, 1069, 1137, 1333, 1030, 1322, 976, 1033, 1301, 963, 1087, 1273, 1024, 985, 1294, 1057, 1026, 1333, 1003, 1066, 1286, 1061, 1004, 1266, 1085, 1004, 1297, 1127, 1061, 1067, 1286, 1041, 1301, 1080, 1048, 1339, 983, 1047, 1217, 997, 960, 1294, 961, 1027, 1279, 1019, 1270, 1125, 1084, 1210, 1149, 1023, 1315, 993, 1020, 1326, 986, 1070, 1184, 986, 952, 1298, 1016, 1049, 1406, 1045, 1147, 1276, 1020, 984, 1308, 981, 1062, 1255, 951, 1052, 1307, 947, 1041, 1309, 982, 1051, 1343, 1029, 975, 1318, 995, 978, 1312, 987, 1201, 1176, 1087, 1208, 1067, 973, 1338, 1000, 1039, 1279, 979, 1041, 1288, 1016, 1039, 1270],
      "WindowCenter": [522.0, 524.0, 522.0, 523.0, 523.0, 520.0, 519.0, 523.0, 519.0, 519.0, 522.0, 520.0, 521.0, 524.0, 520.0, 520.0, 522.0, 522.0, 521.0, 520.0, 524.0, 521.0, 521.0, 524.0, 522.0, 521.0, 523.0, 524.0, 521.0, 521.0, 524.0, 521.0, 522.0, 523.0, 520.0, 521.0, 524.0, 520.0, 521.0, 524.0, 521.0, 521.0, 522.0, 523.0, 521.0, 522.0, 523.0, 522.0, 524.0, 522.0, 522.0, 521.0, 524.0, 522.0, 522.0, 525.0, 522.0, 523.0, 523.0, 524.0, 522.0, 522.0, 525.0, 522.0, 522.0, 523.0, 523.0, 521.0, 521.0, 524.0, 522.0, 522.0, 522.0, 524.0, 522.0, 523.0, 522.0, 525.0, 522.0, 522.0, 522.0, 524.0, 521.0, 521.0, 521.0, 525.0, 522.0, 521.0, 521.0, 523.0, 524.0, 521.0, 521.0, 521.0, 524.0, 521.0, 521.0, 521.0, 523.0, 524.0, 523.0, 522.0, 522.0, 525.0, 524.0, 523.0, 524.0, 526.0, 525.0, 522.0, 522.0, 526.0, 525.0, 524.0, 524.0, 526.0, 525.0, 523.0, 523.0, 526.0, 524.0, 524.0, 525.0, 526.0, 524.0, 524.0, 527.0, 525.0, 524.0, 525.0, 526.0, 524.0, 523.0, 526.0, 524.0, 524.0, 523.0, 527.0, 523.0, 524.0, 526.0, 524.0, 523.0, 525.0, 527.0, 524.0, 525.0, 527.0, 523.0, 526.0, 526.0, 523.0, 524.0, 525.0, 522.0, 525.0, 522.0, 523.0, 525.0, 522.0, 523.0, 525.0, 523.0, 523.0, 526.0, 524.0, 524.0, 526.0, 524.0, 524.0, 525.0, 524.0, 523.0, 526.0, 524.0, 523.0, 526.0, 525.0, 524.0, 523.0, 526.0, 523.0, 526.0, 523.0, 522.0, 525.0, 522.0, 522.0, 524.0, 523.0, 522.0, 526.0, 523.0, 524.0, 525.0, 524.0, 525.0, 525.0, 524.0, 525.0, 524.0, 523.0, 526.0, 523.0, 523.0, 526.0, 523.0, 524.0, 525.0, 524.0, 524.0, 527.0, 525.0, 525.0, 527.0, 524.0, 525.0, 526.0, 523.0, 523.0, 526.0, 523.0, 524.0, 526.0, 523.0, 524.0, 527.0, 524.0, 525.0, 527.0, 524.0, 525.0, 527.0, 525.0, 524.0, 526.0, 524.0, 525.0, 527.0, 524.0, 526.0, 525.0, 524.0, 525.0, 524.0, 523.0, 527.0, 523.0, 524.0, 526.0, 523.0, 525.0, 526.0, 525.0, 525.0, 528.0],
      "WindowWidth": [1085.0, 1087.0, 1083.0, 1084.0, 1084.0, 1080.0, 1078.0, 1084.0, 1078.0, 1079.0, 1083.0, 1081.0, 1081.0, 1086.0, 1080.0, 1080.0, 1084.0, 1083.0, 1082.0, 1080.0, 1086.0, 1082.0, 1082.0, 1086.0, 1083.0, 1081.0, 1085.0, 1087.0, 1082.0, 1083.0, 1086.0, 1082.0, 1083.0, 1085.0, 1081.0, 1081.0, 1086.0, 1081.0, 1081.0, 1086.0, 1081.0, 1081.0, 1083.0, 1085.0, 1081.0, 1084.0, 1084.0, 1083.0, 1087.0, 1083.0, 1082.0, 1082.0, 1086.0, 1083.0, 1083.0, 1089.0, 1083.0, 1085.0, 1085.0, 1087.0, 1084.0, 1083.0, 1088.0, 1083.0, 1083.0, 1085.0, 1085.0, 1082.0, 1082.0, 1086.0, 1083.0, 1082.0, 1084.0, 1086.0, 1084.0, 1084.0, 1083.0, 1088.0, 1083.0, 1083.0, 1084.0, 1086.0, 1082.0, 1081.0, 1082.0, 1088.0, 1083.0, 1082.0, 1082.0, 1085.0, 1085.0, 1082.0, 1081.0, 1081.0, 1087.0, 1081.0, 1082.0, 1081.0, 1084.0, 1086.0, 1086.0, 1083.0, 1084.0, 1088.0, 1086.0, 1084.0, 1086.0, 1090.0, 1089.0, 1084.0, 1084.0, 1089.0, 1088.0, 1086.0, 1087.0, 1091.0, 1088.0, 1086.0, 1085.0, 1090.0, 1087.0, 1087.0, 1089.0, 1091.0, 1087.0, 1088.0, 1091.0, 1089.0, 1087.0, 1089.0, 1090.0, 1086.0, 1086.0, 1090.0, 1087.0, 1087.0, 1085.0, 1091.0, 1086.0, 1087.0, 1090.0, 1087.0, 1086.0, 1089.0, 1091.0, 1088.0, 1089.0, 1091.0, 1086.0, 1090.0, 1090.0, 1086.0, 1087.0, 1089.0, 1083.0, 1088.0, 1083.0, 1085.0, 1088.0, 1084.0, 1085.0, 1088.0, 1086.0, 1085.0, 1091.0, 1087.0, 1087.0, 1090.0, 1087.0, 1087.0, 1089.0, 1088.0, 1086.0, 1091.0, 1088.0, 1086.0, 1090.0, 1088.0, 1087.0, 1086.0, 1089.0, 1085.0, 1090.0, 1085.0, 1084.0, 1088.0, 1084.0, 1084.0, 1086.0, 1085.0, 1084.0, 1090.0, 1085.0, 1087.0, 1089.0, 1087.0, 1089.0, 1088.0, 1087.0, 1088.0, 1087.0, 1085.0, 1091.0, 1086.0, 1086.0, 1090.0, 1086.0, 1087.0, 1089.0, 1088.0, 1087.0, 1093.0, 1089.0, 1090.0, 1092.0, 1088.0, 1090.0, 1090.0, 1086.0, 1085.0, 1090.0, 1086.0, 1088.0, 1090.0, 1087.0, 1087.0, 1092.0, 1087.0, 1088.0, 1092.0, 1088.0, 1088.0, 1092.0, 1089.0, 1087.0, 1092.0, 1088.0, 1089.0, 1093.0, 1088.0, 1091.0, 1089.0, 1087.0, 1088.0, 1087.0, 1086.0, 1092.0, 1086.0, 1087.0, 1090.0, 1087.0, 1088.0, 1091.0, 1089.0, 1088.0, 1094.0]
    },
    "slices": {}
  }
}