{
  "AcquisitionMatrixPE": 64,
  "AcquisitionNumber": 1,
  "AcquisitionTime": "17:24:35.845000",
  "BandwidthPerPixelPhaseEncode": 40.064,
  "BaseResolution": 64,
  "BodyPartExamined": "BRAIN",
  "ConsistencyInfo": "N4_VD13D_LATEST_20130810",
  "ConversionSoftware": "dcm2niix",
  "ConversionSoftwareVersion": "v1.0.20191031",
  "DerivedVendorReportedEchoSpacing": 0.000780002,
  "DeviceSerialNumber": "67007",
  "DwellTime": 5.3e-06,
  "EchoTime": 0.03,
  "EchoTrainLength": 31,
  "EffectiveEchoSpacing": 0.000390001,
  "FlipAngle": 75,
  "ImageOrientationPatientDICOM": [0.998818, -0.0476422, 0.00962531, 0.0471031, 0.997634, 0.0500804],
  "ImageType": [
    "ORIGINAL",
    "PRIMARY",
    "M",
    "ND",
    "NORM",
    "MOSAIC"
],
  "ImagingFrequency": 123.211,
  "InPlanePhaseEncodingDirectionDICOM": "ROW",
  "InstitutionAddress": "Perth_Drive_100_London_Ontario_CA_N6A_5K8",
  "InstitutionName": "Robarts_Research_Institute",
  "InstitutionalDepartmentName": "CFMM",
  "MRAcquisitionType": "2D",
  "MagneticFieldStrength": 3,
  "Manufacturer": "Siemens",
  "ManufacturersModelName": "Prisma_fit",
  "Modality": "MR",
  "ParallelReductionFactorInPlane": 2,
  "PartialFourier": 1,
  "PatientPosition": "HFS",
  "PercentPhaseFOV": 100,
  "PhaseEncodingDirection": "i",
  "PhaseEncodingSteps": 63,
  "PhaseResolution": 1,
  "PixelBandwidth": 1475,
  "ProcedureStepDescription": "Owen_Naci",
  "ProtocolName": "taken_recovery",
  "PulseSequenceDetails": "%SiemensSeq%_ep2d_bold",
  "ReceiveCoilActiveElements": "HEA;HEP",
  "ReceiveCoilName": "Head_32",
  "ReconMatrixPE": 64,
  "RefLinesPE": 24,
  "RepetitionTime": 2,
  "SAR": 0.101227,
  "ScanOptions": "FS",
  "ScanningSequence": "EP",
  "SequenceName": "_epfid2d1_64",
  "SequenceVariant": "SK",
  "SeriesDescription": "taken_recovery",
  "SeriesNumber": 20,
  "ShimSetting": [5251, -6046, -3915, 536, 34, 175, 27, -29],
  "SliceThickness": 3,
  "SliceTiming": [1.92, 1.86, 1.8, 1.74, 1.68, 1.62, 1.56, 1.5, 1.44, 1.38, 1.32, 1.26, 1.2, 1.14, 1.08, 1.02, 0.96, 0.9, 0.84, 0.78, 0.72, 0.66, 0.6, 0.54, 0.48, 0.42, 0.36, 0.3, 0.24, 0.18, 0.12, 0.06, 0],
  "SoftwareVersions": "syngo_MR_D13D",
  "SpacingBetweenSlices": 3.75,
  "StationName": "AWP67007",
  "TaskName": "audiorecovery",
  "TotalReadoutTime": 0.0245701,
  "TxRefAmp": 275.266,
  "dcmmeta_affine": [
    [-2.9964542388916016, 0.1413092017173767, 0.04495676979422569, 87.4243392944336],
    [0.14292649924755096, 2.992901563644409, 0.18587946891784668, -87.27631378173828],
    [0.028875920921564102, -0.15024128556251526, 3.7451205253601074, -63.79973602294922],
    [0.0, 0.0, 0.0, 1.0]
],
  "dcmmeta_reorient_transform": [
    [0.0, -1.0, 0.0, 63.0],
    [1.0, 0.0, 0.0, 0.0],
    [0.0, 0.0, 1.0, 0.0],
    [0.0, 0.0, 0.0, 1.0]
],
  "dcmmeta_shape": [64, 64, 33, 155],
  "dcmmeta_slice_dim": 2,
  "dcmmeta_version": 0.6,
  "global": {
    "const": {
      "AcquisitionMatrix": [0, 64, 64, 0],
      "AngioFlag": "N",
      "BitsAllocated": 16,
      "BitsStored": 12,
      "BodyPartExamined": "BRAIN",
      "Columns": 384,
      "EchoNumbers": 1,
      "EchoTime": 30.0,
      "EchoTrainLength": 31,
      "FlipAngle": 75.0,
      "HighBit": 11,
      "ImageOrientationPatient": [0.99881809031717, -0.0476421654024, 0.00962530679708, 0.04710306784134, 0.99763382639903, 0.05008042955447],
      "ImagePositionPatient": [-598.36897594284, -557.27247868595, -101.9236920047],
      "ImageType": [
        "ORIGINAL",
        "PRIMARY",
        "M",
        "ND",
        "NORM",
        "MOSAIC"
],
      "ImagedNucleus": "1H",
      "ImagingFrequency": 123.211339,
      "InPlanePhaseEncodingDirection": "ROW",
      "MRAcquisitionType": "2D",
      "MagneticFieldStrength": 3.0,
      "Manufacturer": "SIEMENS",
      "ManufacturerModelName": "Prisma_fit",
      "Modality": "MR",
      "NumberOfAverages": 1.0,
      "NumberOfPhaseEncodingSteps": 63,
      "PercentPhaseFieldOfView": 100.0,
      "PercentSampling": 100.0,
      "PerformedProcedureStepStartTime": "154124.950000",
      "PhotometricInterpretation": "MONOCHROME2",
      "PixelBandwidth": 1475.0,
      "PixelRepresentation": 0,
      "PixelSpacing": [3.0, 3.0],
      "ProtocolName": "taken_recovery",
      "RepetitionTime": 2000.0,
      "Rows": 384,
      "SAR": 0.10122748989849,
      "SamplesPerPixel": 1,
      "ScanOptions": "FS",
      "ScanningSequence": "EP",
      "SequenceName": "*epfid2d1_64",
      "SequenceVariant": "SK",
      "SeriesDescription": "taken_recovery",
      "SeriesNumber": 20,
      "SeriesTime": "172518.205000",
      "SliceLocation": -66.99473705547,
      "SliceThickness": 3.0,
      "SmallestImagePixelValue": 0,
      "SoftwareVersions": "syngo MR D13D",
      "SpacingBetweenSlices": 3.7500000050565,
      "SpecificCharacterSet": "ISO_IR 100",
      "StudyID": "1",
      "StudyTime": "154124.800000",
      "TimeOfLastCalibration": ["123723.000000", "123723.000000"],
      "TransmitCoilName": "Body",
      "VariableFlipAngleFlag": "N",
      "WindowCenterWidthExplanation": "Algo1",
      "dBdt": 0.0},
    "slices": {}
  },
  "time": {
    "samples": {
      "AcquisitionNumber": [1, 2, 3, 4, 5, 6, 7, 8, 9, 10, 11, 12, 13, 14, 15, 16, 17, 18, 19, 20, 21, 22, 23, 24, 25, 26, 27, 28, 29, 30, 31, 32, 33, 34, 35, 36, 37, 38, 39, 40, 41, 42, 43, 44, 45, 46, 47, 48, 49, 50, 51, 52, 53, 54, 55, 56, 57, 58, 59, 60, 61, 62, 63, 64, 65, 66, 67, 68, 69, 70, 71, 72, 73, 74, 75, 76, 77, 78, 79, 80, 81, 82, 83, 84, 85, 86, 87, 88, 89, 90, 91, 92, 93, 94, 95, 96, 97, 98, 99, 100, 101, 102, 103, 104, 105, 106, 107, 108, 109, 110, 111, 112, 113, 114, 115, 116, 117, 118, 119, 120, 121, 122, 123, 124, 125, 126, 127, 128, 129, 130, 131, 132, 133, 134, 135, 136, 137, 138, 139, 140, 141, 142, 143, 144, 145, 146, 147, 148, 149, 150, 151, 152, 153, 154, 155],
      "AcquisitionTime": ["172435.845000", "172437.845000", "172439.845000", "172441.845000", "172443.845000", "172445.845000", "172447.845000", "172449.845000", "172451.845000", "172453.845000", "172455.845000", "172457.845000", "172459.845000", "172501.845000", "172503.845000", "172505.845000", "172507.845000", "172509.845000", "172511.845000", "172513.845000", "172515.845000", "172517.845000", "172519.845000", "172521.845000", "172523.845000", "172525.845000", "172527.845000", "172529.845000", "172531.845000", "172533.845000", "172535.845000", "172537.845000", "172539.845000", "172541.845000", "172543.845000", "172545.845000", "172547.845000", "172549.845000", "172551.845000", "172553.845000", "172555.845000", "172557.845000", "172559.847500", "172601.847500", "172603.847500", "172605.847500", "172607.847500", "172609.847500", "172611.847500", "172613.847500", "172615.847500", "172617.847500", "172619.847500", "172621.847500", "172623.847500", "172625.847500", "172627.847500", "172629.847500", "172631.847500", "172633.847500", "172635.847500", "172637.847500", "172639.847500", "172641.847500", "172643.847500", "172645.847500", "172647.847500", "172649.847500", "172651.847500", "172653.847500", "172655.847500", "172657.847500", "172659.847500", "172701.847500", "172703.847500", "172705.847500", "172707.847500", "172709.847500", "172711.847500", "172713.847500", "172715.847500", "172717.847500", "172719.847500", "172721.847500", "172723.847500", "172725.847500", "172727.847500", "172729.847500", "172731.847500", "172733.847500", "172735.847500", "172737.847500", "172739.847500", "172741.847500", "172743.847500", "172745.847500", "172747.847500", "172749.847500", "172751.847500", "172753.847500", "172755.847500", "172757.847500", "172759.847500", "172801.847500", "172803.847500", "172805.847500", "172807.847500", "172809.847500", "172811.847500", "172813.847500", "172815.847500", "172817.847500", "172819.847500", "172821.847500", "172823.847500", "172825.847500", "172827.847500", "172829.847500", "172831.847500", "172833.847500", "172835.847500", "172837.847500", "172839.847500", "172841.847500", "172843.847500", "172845.847500", "172847.847500", "172849.847500", "172851.847500", "172853.847500", "172855.847500", "172857.847500", "172859.847500", "172901.847500", "172903.847500", "172905.847500", "172907.847500", "172909.847500", "172911.847500", "172913.847500", "172915.847500", "172917.847500", "172919.847500", "172921.847500", "172923.847500", "172925.847500", "172927.847500", "172929.847500", "172931.847500", "172933.847500", "172935.847500", "172937.847500", "172939.847500", "172941.847500", "172943.847500"],
      "ContentTime": ["172518.209000", "172518.213000", "172518.216000", "172518.218000", "172518.221000", "172518.224000", "172518.227000", "172518.230000", "172518.233000", "172518.236000", "172518.239000", "172518.244000", "172518.247000", "172518.249000", "172518.252000", "172518.255000", "172518.258000", "172518.261000", "172518.263000", "172518.266000", "172518.269000", "172558.201000", "172558.205000", "172558.207000", "172558.210000", "172558.213000", "172558.220000", "172558.222000", "172558.225000", "172558.228000", "172558.231000", "172558.234000", "172558.236000", "172558.239000", "172558.242000", "172558.245000", "172558.248000", "172558.250000", "172558.253000", "172558.256000", "172558.259000", "172558.262000", "172638.201000", "172638.204000", "172638.207000", "172638.210000", "172638.213000", "172638.216000", "172638.219000", "172638.222000", "172638.226000", "172638.229000", "172638.232000", "172638.235000", "172638.237000", "172638.240000", "172638.243000", "172638.246000", "172638.249000", "172638.252000", "172638.255000", "172638.258000", "172718.202000", "172718.206000", "172718.209000", "172718.213000", "172718.216000", "172718.218000", "172718.222000", "172718.225000", "172718.227000", "172718.230000", "172718.234000", "172718.236000", "172718.239000", "172718.242000", "172718.245000", "172718.248000", "172718.264000", "172718.267000", "172718.270000", "172718.273000", "172818.201000", "172818.212000", "172818.215000", "172818.218000", "172818.221000", "172818.225000", "172818.228000", "172818.230000", "172818.233000", "172818.236000", "172818.239000", "172818.242000", "172818.245000", "172818.248000", "172818.251000", "172818.254000", "172818.257000", "172818.260000", "172818.263000", "172818.265000", "172818.268000", "172818.271000", "172818.274000", "172818.277000", "172818.280000", "172818.283000", "172818.286000", "172818.289000", "172818.292000", "172818.295000", "172858.202000", "172858.212000", "172858.216000", "172858.219000", "172858.222000", "172858.225000", "172858.229000", "172858.232000", "172858.235000", "172858.237000", "172858.240000", "172858.243000", "172858.246000", "172858.249000", "172858.252000", "172858.255000", "172858.258000", "172858.261000", "172858.264000", "172938.201000", "172938.204000", "172938.207000", "172938.214000", "172938.216000", "172938.219000", "172938.223000", "172938.226000", "172938.229000", "172938.232000", "172938.235000", "172938.238000", "172938.241000", "172938.244000", "172938.247000", "172938.250000", "172938.252000", "172938.255000", "172938.258000", "172938.261000", "172938.264000", "172944.191000", "172944.194000", "172944.198000"],
      "InstanceCreationTime": ["172518.209000", "172518.213000", "172518.216000", "172518.218000", "172518.221000", "172518.224000", "172518.227000", "172518.230000", "172518.233000", "172518.236000", "172518.239000", "172518.244000", "172518.247000", "172518.249000", "172518.252000", "172518.255000", "172518.258000", "172518.261000", "172518.263000", "172518.266000", "172518.269000", "172558.201000", "172558.205000", "172558.207000", "172558.210000", "172558.213000", "172558.220000", "172558.222000", "172558.225000", "172558.228000", "172558.231000", "172558.234000", "172558.236000", "172558.239000", "172558.242000", "172558.245000", "172558.248000", "172558.250000", "172558.253000", "172558.256000", "172558.259000", "172558.262000", "172638.201000", "172638.204000", "172638.207000", "172638.210000", "172638.213000", "172638.216000", "172638.219000", "172638.222000", "172638.226000", "172638.229000", "172638.232000", "172638.235000", "172638.237000", "172638.240000", "172638.243000", "172638.246000", "172638.249000", "172638.252000", "172638.255000", "172638.258000", "172718.202000", "172718.206000", "172718.209000", "172718.213000", "172718.216000", "172718.218000", "172718.222000", "172718.225000", "172718.227000", "172718.230000", "172718.234000", "172718.236000", "172718.239000", "172718.242000", "172718.245000", "172718.248000", "172718.264000", "172718.267000", "172718.270000", "172718.273000", "172818.201000", "172818.212000", "172818.215000", "172818.218000", "172818.221000", "172818.225000", "172818.228000", "172818.230000", "172818.233000", "172818.236000", "172818.239000", "172818.242000", "172818.245000", "172818.248000", "172818.251000", "172818.254000", "172818.257000", "172818.260000", "172818.263000", "172818.265000", "172818.268000", "172818.271000", "172818.274000", "172818.277000", "172818.280000", "172818.283000", "172818.286000", "172818.289000", "172818.292000", "172818.295000", "172858.202000", "172858.212000", "172858.216000", "172858.219000", "172858.222000", "172858.225000", "172858.229000", "172858.232000", "172858.235000", "172858.237000", "172858.240000", "172858.243000", "172858.246000", "172858.249000", "172858.252000", "172858.255000", "172858.258000", "172858.261000", "172858.264000", "172938.201000", "172938.204000", "172938.207000", "172938.214000", "172938.216000", "172938.219000", "172938.223000", "172938.226000", "172938.229000", "172938.232000", "172938.235000", "172938.238000", "172938.241000", "172938.244000", "172938.247000", "172938.250000", "172938.252000", "172938.255000", "172938.258000", "172938.261000", "172938.264000", "172944.191000", "172944.194000", "172944.198000"],
      "InstanceNumber": [1, 2, 3, 4, 5, 6, 7, 8, 9, 10, 11, 12, 13, 14, 15, 16, 17, 18, 19, 20, 21, 22, 23, 24, 25, 26, 27, 28, 29, 30, 31, 32, 33, 34, 35, 36, 37, 38, 39, 40, 41, 42, 43, 44, 45, 46, 47, 48, 49, 50, 51, 52, 53, 54, 55, 56, 57, 58, 59, 60, 61, 62, 63, 64, 65, 66, 67, 68, 69, 70, 71, 72, 73, 74, 75, 76, 77, 78, 79, 80, 81, 82, 83, 84, 85, 86, 87, 88, 89, 90, 91, 92, 93, 94, 95, 96, 97, 98, 99, 100, 101, 102, 103, 104, 105, 106, 107, 108, 109, 110, 111, 112, 113, 114, 115, 116, 117, 118, 119, 120, 121, 122, 123, 124, 125, 126, 127, 128, 129, 130, 131, 132, 133, 134, 135, 136, 137, 138, 139, 140, 141, 142, 143, 144, 145, 146, 147, 148, 149, 150, 151, 152, 153, 154, 155],
      "LargestImagePixelValue": [904, 770, 963, 815, 844, 860, 692, 960, 746, 779, 886, 788, 876, 728, 930, 660, 875, 795, 660, 877, 844, 685, 984, 757, 799, 847, 699, 985, 691, 887, 773, 832, 803, 795, 761, 962, 805, 913, 802, 752, 772, 892, 676, 925, 733, 883, 804, 748, 886, 726, 886, 690, 883, 763, 727, 1030, 771, 740, 845, 727, 886, 685, 835, 925, 690, 892, 761, 796, 894, 692, 869, 809, 696, 922, 655, 953, 751, 836, 728, 897, 781, 864, 767, 1067, 702, 852, 671, 855, 715, 1013, 747, 824, 815, 803, 805, 698, 912, 689, 984, 757, 836, 833, 813, 771, 838, 866, 661, 935, 689, 853, 917, 681, 854, 678, 928, 835, 777, 847, 763, 734, 869, 898, 819, 735, 950, 727, 916, 692, 959, 676, 826, 686, 920, 757, 755, 878, 729, 825, 691, 914, 738, 833, 905, 676, 891, 691, 862, 762, 812, 847, 674, 934, 779, 898, 690],
      "WindowCenter": [380.0, 377.0, 378.0, 377.0, 376.0, 376.0, 375.0, 377.0, 375.0, 376.0, 378.0, 376.0, 376.0, 375.0, 377.0, 374.0, 376.0, 375.0, 374.0, 377.0, 377.0, 375.0, 378.0, 376.0, 377.0, 377.0, 376.0, 378.0, 376.0, 378.0, 377.0, 377.0, 377.0, 378.0, 378.0, 379.0, 377.0, 376.0, 375.0, 375.0, 376.0, 377.0, 375.0, 378.0, 376.0, 378.0, 377.0, 377.0, 377.0, 376.0, 377.0, 375.0, 377.0, 376.0, 376.0, 378.0, 376.0, 375.0, 376.0, 375.0, 377.0, 376.0, 377.0, 378.0, 376.0, 378.0, 376.0, 376.0, 377.0, 375.0, 377.0, 377.0, 376.0, 378.0, 376.0, 379.0, 377.0, 377.0, 376.0, 379.0, 377.0, 377.0, 375.0, 377.0, 373.0, 375.0, 373.0, 376.0, 375.0, 378.0, 375.0, 376.0, 376.0, 376.0, 376.0, 376.0, 378.0, 375.0, 378.0, 375.0, 375.0, 375.0, 375.0, 375.0, 377.0, 377.0, 374.0, 377.0, 375.0, 377.0, 377.0, 375.0, 377.0, 376.0, 378.0, 377.0, 376.0, 377.0, 376.0, 376.0, 377.0, 378.0, 376.0, 375.0, 378.0, 376.0, 377.0, 375.0, 378.0, 375.0, 377.0, 376.0, 378.0, 376.0, 376.0, 378.0, 376.0, 377.0, 376.0, 378.0, 377.0, 377.0, 378.0, 375.0, 378.0, 376.0, 377.0, 376.0, 377.0, 377.0, 376.0, 379.0, 377.0, 377.0, 375.0],
      "WindowWidth": [809.0, 805.0, 805.0, 803.0, 803.0, 803.0, 801.0, 804.0, 800.0, 802.0, 805.0, 802.0, 803.0, 800.0, 804.0, 800.0, 803.0, 801.0, 800.0, 804.0, 803.0, 801.0, 805.0, 802.0, 803.0, 804.0, 802.0, 806.0, 802.0, 805.0, 804.0, 805.0, 805.0, 806.0, 806.0, 808.0, 804.0, 803.0, 801.0, 801.0, 802.0, 804.0, 801.0, 805.0, 803.0, 806.0, 804.0, 804.0, 805.0, 803.0, 805.0, 802.0, 804.0, 802.0, 803.0, 806.0, 802.0, 801.0, 803.0, 802.0, 804.0, 802.0, 805.0, 806.0, 802.0, 805.0, 803.0, 802.0, 804.0, 801.0, 803.0, 804.0, 802.0, 806.0, 803.0, 808.0, 804.0, 803.0, 803.0, 807.0, 804.0, 805.0, 802.0, 803.0, 797.0, 800.0, 798.0, 803.0, 802.0, 805.0, 801.0, 802.0, 802.0, 802.0, 802.0, 802.0, 805.0, 801.0, 805.0, 800.0, 800.0, 800.0, 800.0, 801.0, 803.0, 803.0, 800.0, 804.0, 801.0, 803.0, 804.0, 801.0, 804.0, 802.0, 806.0, 805.0, 803.0, 803.0, 803.0, 803.0, 805.0, 805.0, 802.0, 802.0, 805.0, 802.0, 804.0, 801.0, 805.0, 801.0, 803.0, 802.0, 805.0, 803.0, 803.0, 805.0, 803.0, 804.0, 802.0, 806.0, 804.0, 805.0, 806.0, 801.0, 805.0, 802.0, 804.0, 803.0, 803.0, 804.0, 803.0, 808.0, 804.0, 804.0, 801.0]
    },
    "slices": {}
  }
}