{
  "AcquisitionMatrixPE": 64,
  "AcquisitionNumber": 2,
  "AcquisitionTime": "12:55:30.377500",
  "BandwidthPerPixelPhaseEncode": 40.064,
  "BaseResolution": 64,
  "BodyPartExamined": "BRAIN",
  "ConsistencyInfo": "N4_VD13D_LATEST_20130810",
  "ConversionSoftware": "dcm2niix",
  "ConversionSoftwareVersion": "v1.0.20191031",
  "DerivedVendorReportedEchoSpacing": 0.000780002,
  "DeviceSerialNumber": "67007",
  "DwellTime": 5.3e-06,
  "EchoTime": 0.03,
  "EchoTrainLength": 31,
  "EffectiveEchoSpacing": 0.000390001,
  "FlipAngle": 75,
  "ImageOrientationPatientDICOM": [0.999163, 0.0403891, -0.00647688, -0.0401305, 0.998545, 0.0360291],
  "ImageType": [
    "ORIGINAL",
    "PRIMARY",
    "M",
    "ND",
    "NORM",
    "MOSAIC"
],
  "ImagingFrequency": 123.211,
  "InPlanePhaseEncodingDirectionDICOM": "ROW",
  "InstitutionAddress": "Perth_Drive_100_London_Ontario_CA_N6A_5K8",
  "InstitutionName": "Robarts-CFMM",
  "InstitutionalDepartmentName": "CFMM",
  "MRAcquisitionType": "2D",
  "MagneticFieldStrength": 3,
  "Manufacturer": "Siemens",
  "ManufacturersModelName": "Prisma_fit",
  "Modality": "MR",
  "ParallelReductionFactorInPlane": 2,
  "PartialFourier": 1,
  "PatientPosition": "HFS",
  "PercentPhaseFOV": 100,
  "PhaseEncodingDirection": "i",
  "PhaseEncodingSteps": 63,
  "PhaseResolution": 1,
  "PixelBandwidth": 1475,
  "ProcedureStepDescription": "Owen_Naci",
  "ProtocolName": "Resting_State",
  "PulseSequenceDetails": "%SiemensSeq%_ep2d_bold",
  "ReceiveCoilActiveElements": "HEA;HEP",
  "ReceiveCoilName": "Head_32",
  "ReconMatrixPE": 64,
  "RefLinesPE": 24,
  "RepetitionTime": 2,
  "SAR": 0.121412,
  "ScanOptions": "FS",
  "ScanningSequence": "EP",
  "SequenceName": "_epfid2d1_64",
  "SequenceVariant": "SK",
  "SeriesDescription": "Resting_State",
  "SeriesNumber": 9,
  "ShimSetting": [5234, -6081, -3885, 371, -4, 186, 75, -1],
  "SliceThickness": 3,
  "SliceTiming": [1.9175, 1.8575, 1.7975, 1.7375, 1.6775, 1.6175, 1.5575, 1.4975, 1.4375, 1.3775, 1.3175, 1.2575, 1.1975, 1.1375, 1.0775, 1.0175, 0.9575, 0.8975, 0.8375, 0.7775, 0.7175, 0.6575, 0.6, 0.54, 0.48, 0.42, 0.36, 0.3, 0.24, 0.18, 0.12, 0.06, 0],
  "SoftwareVersions": "syngo_MR_D13D",
  "SpacingBetweenSlices": 3.75,
  "StationName": "AWP67007",
  "TaskName": "rest",
  "TotalReadoutTime": 0.0245701,
  "TxRefAmp": 268.999,
  "dcmmeta_affine": [
    [-2.9974892139434814, -0.1203915998339653, -0.02970988303422928, 101.68151092529297],
    [-0.12116724252700806, 2.995634078979492, 0.1340213268995285, -70.62848663330078],
    [-0.01943063735961914, -0.10808729380369186, 3.7474865913391113, -21.562219619750977],
    [0.0, 0.0, 0.0, 1.0]
],
  "dcmmeta_reorient_transform": [
    [0.0, -1.0, 0.0, 63.0],
    [1.0, 0.0, 0.0, 0.0],
    [0.0, 0.0, 1.0, 0.0],
    [0.0, 0.0, 0.0, 1.0]
],
  "dcmmeta_shape": [64, 64, 33, 135],
  "dcmmeta_slice_dim": 2,
  "dcmmeta_version": 0.6,
  "global": {
    "const": {
      "AcquisitionMatrix": [0, 64, 64, 0],
      "AngioFlag": "N",
      "BitsAllocated": 16,
      "BitsStored": 12,
      "BodyPartExamined": "BRAIN",
      "Columns": 384,
      "EchoNumbers": 1,
      "EchoTime": 30.0,
      "EchoTrainLength": 31,
      "FlipAngle": 75.0,
      "HighBit": 11,
      "ImageOrientationPatient": [0.99916303583197, 0.04038908097244, -0.0064768792826, -0.0401305329621, 0.99854466323311, 0.03602909730837],
      "ImagePositionPatient": [-554.43244362836, -616.7846509019, -42.556783698562],
      "ImageType": [
        "ORIGINAL",
        "PRIMARY",
        "M",
        "ND",
        "NORM",
        "MOSAIC"
],
      "ImagedNucleus": "1H",
      "ImagingFrequency": 123.21111,
      "InPlanePhaseEncodingDirection": "ROW",
      "MRAcquisitionType": "2D",
      "MagneticFieldStrength": 3.0,
      "Manufacturer": "SIEMENS",
      "ManufacturerModelName": "Prisma_fit",
      "Modality": "MR",
      "NumberOfAverages": 1.0,
      "NumberOfPhaseEncodingSteps": 63,
      "PercentPhaseFieldOfView": 100.0,
      "PercentSampling": 100.0,
      "PerformedProcedureStepStartTime": "120140.640000",
      "PhotometricInterpretation": "MONOCHROME2",
      "PixelBandwidth": 1475.0,
      "PixelRepresentation": 0,
      "PixelSpacing": [3.0, 3.0],
      "ProtocolName": "Resting State",
      "RepetitionTime": 2000.0,
      "Rows": 384,
      "SAR": 0.12141194966242,
      "SamplesPerPixel": 1,
      "ScanOptions": "FS",
      "ScanningSequence": "EP",
      "SequenceName": "*epfid2d1_64",
      "SequenceVariant": "SK",
      "SeriesDescription": "Resting State",
      "SeriesNumber": 9,
      "SeriesTime": "125618.273000",
      "SliceLocation": -24.877546230105,
      "SliceThickness": 3.0,
      "SmallestImagePixelValue": 0,
      "SoftwareVersions": "syngo MR D13D",
      "SpacingBetweenSlices": 3.7500000199299,
      "SpecificCharacterSet": "ISO_IR 100",
      "StudyID": "1",
      "StudyTime": "120140.594000",
      "TimeOfLastCalibration": ["123723.000000", "123723.000000"],
      "TransmitCoilName": "Body",
      "VariableFlipAngleFlag": "N",
      "WindowCenterWidthExplanation": "Algo1",
      "dBdt": 0.0},
    "slices": {}
  },
  "time": {
    "samples": {
      "AcquisitionNumber": [2, 3, 4, 6, 8, 10, 12, 16, 20, 26, 27, 32, 35, 37, 38, 39, 42, 44, 46, 49, 50, 53, 54, 56, 58, 59, 61, 62, 65, 66, 69, 73, 76, 77, 81, 84, 89, 91, 93, 94, 95, 96, 98, 99, 100, 101, 102, 105, 109, 110, 113, 114, 115, 116, 120, 121, 125, 126, 127, 130, 131, 132, 135, 136, 139, 140, 142, 143, 144, 145, 146, 147, 150, 151, 152, 154, 155, 156, 157, 159, 160, 162, 164, 167, 168, 173, 176, 178, 181, 184, 187, 188, 189, 190, 191, 194, 195, 197, 199, 200, 203, 204, 205, 206, 209, 213, 214, 216, 217, 220, 222, 224, 226, 227, 228, 229, 230, 232, 233, 234, 235, 237, 238, 240, 241, 242, 243, 245, 246, 248, 249, 250, 251, 253, 254],
      "AcquisitionTime": ["125530.377500", "125532.377500", "125534.377500", "125538.377500", "125542.377500", "125546.377500", "125550.377500", "125558.377500", "125606.377500", "125618.380000", "125620.380000", "125630.380000", "125636.380000", "125640.380000", "125642.380000", "125644.380000", "125650.380000", "125654.380000", "125658.380000", "125704.380000", "125706.380000", "125712.380000", "125714.380000", "125718.380000", "125722.380000", "125724.380000", "125728.380000", "125730.380000", "125736.380000", "125738.380000", "125744.380000", "125752.380000", "125758.380000", "125800.380000", "125808.380000", "125814.380000", "125824.380000", "125828.380000", "125832.380000", "125834.380000", "125836.380000", "125838.380000", "125842.380000", "125844.380000", "125846.380000", "125848.380000", "125850.380000", "125856.380000", "125904.380000", "125906.380000", "125912.380000", "125914.380000", "125916.380000", "125918.380000", "125926.380000", "125928.380000", "125936.380000", "125938.380000", "125940.380000", "125946.380000", "125948.380000", "125950.380000", "125956.380000", "125958.380000", "130004.380000", "130006.380000", "130010.380000", "130012.380000", "130014.380000", "130016.380000", "130018.380000", "130020.380000", "130026.380000", "130028.380000", "130030.380000", "130034.380000", "130036.380000", "130038.380000", "130040.380000", "130044.380000", "130046.380000", "130050.380000", "130054.380000", "130100.380000", "130102.380000", "130112.380000", "130118.380000", "130122.380000", "130128.380000", "130134.380000", "130140.380000", "130142.380000", "130144.380000", "130146.380000", "130148.380000", "130154.380000", "130156.380000", "130200.380000", "130204.380000", "130206.380000", "130212.380000", "130214.380000", "130216.380000", "130218.380000", "130224.380000", "130232.380000", "130234.380000", "130238.380000", "130240.380000", "130246.380000", "130250.380000", "130254.380000", "130258.380000", "130300.380000", "130302.380000", "130304.380000", "130306.380000", "130310.380000", "130312.380000", "130314.380000", "130316.380000", "130320.380000", "130322.380000", "130326.380000", "130328.380000", "130330.380000", "130332.380000", "130336.380000", "130338.380000", "130342.380000", "130344.380000", "130346.380000", "130348.380000", "130352.380000", "130354.380000"],
      "ContentTime": ["125618.284000", "125618.287000", "125618.289000", "125618.296000", "125618.301000", "125618.307000", "125618.313000", "125618.324000", "125618.335000", "125658.277000", "125658.279000", "125658.293000", "125658.301000", "125658.311000", "125658.314000", "125658.317000", "125658.325000", "125738.271000", "125738.278000", "125738.286000", "125738.288000", "125738.297000", "125738.300000", "125738.306000", "125738.323000", "125738.326000", "125738.332000", "125738.335000", "125818.274000", "125818.277000", "125818.285000", "125818.296000", "125818.313000", "125818.316000", "125818.330000", "125858.271000", "125858.290000", "125858.296000", "125858.306000", "125858.308000", "125858.311000", "125858.314000", "125858.329000", "125858.332000", "125858.334000", "125858.337000", "125858.340000", "125938.274000", "125938.285000", "125938.288000", "125938.297000", "125938.300000", "125938.302000", "125938.312000", "125938.324000", "125938.327000", "130018.274000", "130018.277000", "130018.280000", "130018.289000", "130018.293000", "130018.296000", "130018.308000", "130018.312000", "130018.323000", "130018.325000", "130018.331000", "130018.334000", "130058.271000", "130058.274000", "130058.282000", "130058.285000", "130058.293000", "130058.296000", "130058.299000", "130058.305000", "130058.307000", "130058.317000", "130058.320000", "130058.326000", "130058.329000", "130058.334000", "130138.271000", "130138.280000", "130138.283000", "130138.297000", "130138.306000", "130138.312000", "130138.321000", "130218.271000", "130218.279000", "130218.282000", "130218.285000", "130218.292000", "130218.295000", "130218.303000", "130218.310000", "130218.316000", "130218.338000", "130218.341000", "130218.349000", "130258.271000", "130258.275000", "130258.278000", "130258.286000", "130258.298000", "130258.300000", "130258.308000", "130258.311000", "130258.319000", "130258.325000", "130318.270000", "130318.279000", "130318.281000", "130318.284000", "130318.287000", "130318.290000", "130318.295000", "130318.298000", "130318.301000", "130358.271000", "130358.277000", "130358.280000", "130358.285000", "130358.288000", "130358.291000", "130358.294000", "130358.303000", "130358.306000", "130358.312000", "130358.315000", "130358.318000", "130358.328000", "130358.333000", "130402.294000"],
      "InstanceCreationTime": ["125618.284000", "125618.287000", "125618.289000", "125618.296000", "125618.301000", "125618.307000", "125618.313000", "125618.324000", "125618.335000", "125658.277000", "125658.279000", "125658.293000", "125658.301000", "125658.311000", "125658.314000", "125658.317000", "125658.325000", "125738.271000", "125738.278000", "125738.286000", "125738.288000", "125738.297000", "125738.300000", "125738.306000", "125738.323000", "125738.326000", "125738.332000", "125738.335000", "125818.274000", "125818.277000", "125818.285000", "125818.296000", "125818.313000", "125818.316000", "125818.330000", "125858.271000", "125858.290000", "125858.296000", "125858.306000", "125858.308000", "125858.311000", "125858.314000", "125858.329000", "125858.332000", "125858.334000", "125858.337000", "125858.340000", "125938.274000", "125938.285000", "125938.288000", "125938.297000", "125938.300000", "125938.302000", "125938.312000", "125938.324000", "125938.327000", "130018.274000", "130018.277000", "130018.280000", "130018.289000", "130018.293000", "130018.296000", "130018.308000", "130018.312000", "130018.323000", "130018.325000", "130018.331000", "130018.334000", "130058.271000", "130058.274000", "130058.282000", "130058.285000", "130058.293000", "130058.296000", "130058.299000", "130058.305000", "130058.307000", "130058.317000", "130058.320000", "130058.326000", "130058.329000", "130058.334000", "130138.271000", "130138.280000", "130138.283000", "130138.297000", "130138.306000", "130138.312000", "130138.321000", "130218.271000", "130218.279000", "130218.282000", "130218.285000", "130218.292000", "130218.295000", "130218.303000", "130218.310000", "130218.316000", "130218.338000", "130218.341000", "130218.349000", "130258.271000", "130258.275000", "130258.278000", "130258.286000", "130258.298000", "130258.300000", "130258.308000", "130258.311000", "130258.319000", "130258.325000", "130318.270000", "130318.279000", "130318.281000", "130318.284000", "130318.287000", "130318.290000", "130318.295000", "130318.298000", "130318.301000", "130358.271000", "130358.277000", "130358.280000", "130358.285000", "130358.288000", "130358.291000", "130358.294000", "130358.303000", "130358.306000", "130358.312000", "130358.315000", "130358.318000", "130358.328000", "130358.333000", "130402.294000"],
      "InstanceNumber": [2, 3, 4, 6, 8, 10, 12, 16, 20, 26, 27, 32, 35, 37, 38, 39, 42, 44, 46, 49, 50, 53, 54, 56, 58, 59, 61, 62, 65, 66, 69, 73, 76, 77, 81, 84, 89, 91, 93, 94, 95, 96, 98, 99, 100, 101, 102, 105, 109, 110, 113, 114, 115, 116, 120, 121, 125, 126, 127, 130, 131, 132, 135, 136, 139, 140, 142, 143, 144, 145, 146, 147, 150, 151, 152, 154, 155, 156, 157, 159, 160, 162, 164, 167, 168, 173, 176, 178, 181, 184, 187, 188, 189, 190, 191, 194, 195, 197, 199, 200, 203, 204, 205, 206, 209, 213, 214, 216, 217, 220, 222, 224, 226, 227, 228, 229, 230, 232, 233, 234, 235, 237, 238, 240, 241, 242, 243, 245, 246, 248, 249, 250, 251, 253, 254],
      "LargestImagePixelValue": [953, 890, 893, 807, 936, 854, 858, 805, 791, 827, 926, 809, 992, 1035, 797, 805, 799, 867, 815, 783, 862, 855, 864, 750, 804, 838, 852, 867, 813, 912, 773, 929, 791, 797, 843, 799, 859, 886, 791, 776, 786, 795, 829, 750, 868, 925, 927, 766, 779, 777, 761, 838, 830, 815, 897, 866, 758, 771, 748, 750, 865, 813, 882, 805, 781, 793, 827, 808, 816, 864, 770, 774, 807, 866, 907, 857, 793, 781, 808, 779, 780, 806, 881, 769, 941, 731, 815, 774, 763, 763, 843, 809, 809, 766, 802, 802, 821, 840, 827, 832, 818, 852, 763, 843, 994, 804, 799, 813, 878, 803, 808, 861, 859, 848, 829, 788, 848, 808, 798, 833, 778, 856, 750, 992, 810, 834, 841, 772, 754, 768, 872, 765, 787, 818, 872],
      "WindowCenter": [425.0, 423.0, 423.0, 424.0, 424.0, 423.0, 424.0, 426.0, 425.0, 428.0, 428.0, 425.0, 429.0, 426.0, 423.0, 424.0, 424.0, 425.0, 427.0, 427.0, 428.0, 425.0, 425.0, 425.0, 426.0, 426.0, 426.0, 427.0, 427.0, 428.0, 426.0, 426.0, 423.0, 424.0, 426.0, 426.0, 428.0, 427.0, 425.0, 424.0, 426.0, 426.0, 427.0, 427.0, 428.0, 428.0, 427.0, 425.0, 426.0, 426.0, 427.0, 428.0, 427.0, 427.0, 427.0, 426.0, 424.0, 425.0, 425.0, 427.0, 428.0, 426.0, 425.0, 425.0, 426.0, 426.0, 427.0, 427.0, 427.0, 427.0, 426.0, 426.0, 428.0, 429.0, 428.0, 425.0, 425.0, 424.0, 426.0, 426.0, 426.0, 428.0, 428.0, 427.0, 430.0, 425.0, 426.0, 424.0, 425.0, 427.0, 427.0, 426.0, 426.0, 425.0, 426.0, 427.0, 427.0, 428.0, 428.0, 428.0, 427.0, 428.0, 427.0, 428.0, 428.0, 426.0, 426.0, 427.0, 428.0, 427.0, 428.0, 428.0, 426.0, 426.0, 426.0, 426.0, 426.0, 426.0, 426.0, 427.0, 426.0, 427.0, 428.0, 431.0, 427.0, 426.0, 425.0, 425.0, 424.0, 426.0, 427.0, 427.0, 426.0, 426.0, 428.0],
      "WindowWidth": [896.0, 892.0, 891.0, 894.0, 894.0, 892.0, 893.0, 897.0, 896.0, 901.0, 901.0, 896.0, 903.0, 898.0, 893.0, 894.0, 894.0, 896.0, 899.0, 899.0, 901.0, 896.0, 895.0, 896.0, 897.0, 897.0, 897.0, 899.0, 899.0, 901.0, 897.0, 897.0, 893.0, 894.0, 898.0, 897.0, 902.0, 899.0, 896.0, 894.0, 897.0, 898.0, 899.0, 899.0, 901.0, 900.0, 899.0, 896.0, 897.0, 897.0, 900.0, 901.0, 899.0, 899.0, 900.0, 897.0, 894.0, 895.0, 896.0, 899.0, 901.0, 898.0, 894.0, 895.0, 897.0, 897.0, 899.0, 900.0, 900.0, 899.0, 898.0, 898.0, 901.0, 902.0, 901.0, 896.0, 895.0, 895.0, 897.0, 897.0, 897.0, 901.0, 901.0, 901.0, 904.0, 896.0, 897.0, 894.0, 896.0, 899.0, 899.0, 897.0, 897.0, 896.0, 898.0, 900.0, 900.0, 901.0, 901.0, 901.0, 899.0, 900.0, 900.0, 901.0, 901.0, 897.0, 897.0, 899.0, 900.0, 900.0, 901.0, 901.0, 898.0, 896.0, 897.0, 897.0, 898.0, 898.0, 898.0, 899.0, 898.0, 899.0, 902.0, 907.0, 900.0, 897.0, 896.0, 895.0, 895.0, 897.0, 900.0, 899.0, 898.0, 897.0, 900.0]
    },
    "slices": {}
  }
}