{
  "AcquisitionMatrixPE": 64,
  "AcquisitionNumber": 1,
  "AcquisitionTime": "12:49:25.280000",
  "BandwidthPerPixelPhaseEncode": 40.064,
  "BaseResolution": 64,
  "BodyPartExamined": "BRAIN",
  "ConsistencyInfo": "N4_VD13D_LATEST_20130810",
  "ConversionSoftware": "dcm2niix",
  "ConversionSoftwareVersion": "v1.0.20191031",
  "DerivedVendorReportedEchoSpacing": 0.000780002,
  "DeviceSerialNumber": "67007",
  "DwellTime": 5.3e-06,
  "EchoTime": 0.03,
  "EchoTrainLength": 31,
  "EffectiveEchoSpacing": 0.000390001,
  "FlipAngle": 75,
  "ImageOrientationPatientDICOM": [0.999163, 0.0403891, -0.00647688, -0.0401305, 0.998545, 0.0360291],
  "ImageType": [
    "ORIGINAL",
    "PRIMARY",
    "M",
    "ND",
    "NORM",
    "MOSAIC"
],
  "ImagingFrequency": 123.211,
  "InPlanePhaseEncodingDirectionDICOM": "ROW",
  "InstitutionAddress": "Perth_Drive_100_London_Ontario_CA_N6A_5K8",
  "InstitutionName": "Robarts-CFMM",
  "InstitutionalDepartmentName": "CFMM",
  "MRAcquisitionType": "2D",
  "MagneticFieldStrength": 3,
  "Manufacturer": "Siemens",
  "ManufacturersModelName": "Prisma_fit",
  "Modality": "MR",
  "ParallelReductionFactorInPlane": 2,
  "PartialFourier": 1,
  "PatientPosition": "HFS",
  "PercentPhaseFOV": 100,
  "PhaseEncodingDirection": "i",
  "PhaseEncodingSteps": 63,
  "PhaseResolution": 1,
  "PixelBandwidth": 1475,
  "ProcedureStepDescription": "Owen_Naci",
  "ProtocolName": "taken",
  "PulseSequenceDetails": "%SiemensSeq%_ep2d_bold",
  "ReceiveCoilActiveElements": "HEA;HEP",
  "ReceiveCoilName": "Head_32",
  "ReconMatrixPE": 64,
  "RefLinesPE": 24,
  "RepetitionTime": 2,
  "SAR": 0.121187,
  "ScanOptions": "FS",
  "ScanningSequence": "EP",
  "SequenceName": "_epfid2d1_64",
  "SequenceVariant": "SK",
  "SeriesDescription": "taken",
  "SeriesNumber": 7,
  "ShimSetting": [5234, -6081, -3885, 371, -4, 186, 75, -1],
  "SliceThickness": 3,
  "SliceTiming": [1.92, 1.86, 1.8, 1.74, 1.68, 1.62, 1.56, 1.5, 1.44, 1.38, 1.32, 1.26, 1.2, 1.14, 1.08, 1.02, 0.96, 0.9, 0.84, 0.78, 0.72, 0.66, 0.6, 0.54, 0.48, 0.42, 0.36, 0.3, 0.24, 0.18, 0.12, 0.06, 0],
  "SoftwareVersions": "syngo_MR_D13D",
  "SpacingBetweenSlices": 3.75,
  "StationName": "AWP67007",
  "TaskName": "audio",
  "TotalReadoutTime": 0.0245701,
  "TxRefAmp": 268.999,
  "dcmmeta_affine": [
    [-2.9974892139434814, -0.1203915998339653, -0.02970988303422928, 101.68151092529297],
    [-0.12116724252700806, 2.995634078979492, 0.1340213268995285, -70.62848663330078],
    [-0.01943063735961914, -0.10808729380369186, 3.7474865913391113, -21.562219619750977],
    [0.0, 0.0, 0.0, 1.0]
],
  "dcmmeta_reorient_transform": [
    [0.0, -1.0, 0.0, 63.0],
    [1.0, 0.0, 0.0, 0.0],
    [0.0, 0.0, 1.0, 0.0],
    [0.0, 0.0, 0.0, 1.0]
],
  "dcmmeta_shape": [64, 64, 33, 155],
  "dcmmeta_slice_dim": 2,
  "dcmmeta_version": 0.6,
  "global": {
    "const": {
      "AcquisitionMatrix": [0, 64, 64, 0],
      "AngioFlag": "N",
      "BitsAllocated": 16,
      "BitsStored": 12,
      "BodyPartExamined": "BRAIN",
      "Columns": 384,
      "EchoNumbers": 1,
      "EchoTime": 30.0,
      "EchoTrainLength": 31,
      "FlipAngle": 75.0,
      "HighBit": 11,
      "ImageOrientationPatient": [0.99916303583197, 0.04038908097244, -0.0064768792826, -0.0401305329621, 0.99854466323311, 0.03602909730837],
      "ImagePositionPatient": [-554.43244362836, -616.7846509019, -42.556783698562],
      "ImageType": [
        "ORIGINAL",
        "PRIMARY",
        "M",
        "ND",
        "NORM",
        "MOSAIC"
],
      "ImagedNucleus": "1H",
      "ImagingFrequency": 123.211107,
      "InPlanePhaseEncodingDirection": "ROW",
      "MRAcquisitionType": "2D",
      "MagneticFieldStrength": 3.0,
      "Manufacturer": "SIEMENS",
      "ManufacturerModelName": "Prisma_fit",
      "Modality": "MR",
      "NumberOfAverages": 1.0,
      "NumberOfPhaseEncodingSteps": 63,
      "PercentPhaseFieldOfView": 100.0,
      "PercentSampling": 100.0,
      "PerformedProcedureStepStartTime": "120140.640000",
      "PhotometricInterpretation": "MONOCHROME2",
      "PixelBandwidth": 1475.0,
      "PixelRepresentation": 0,
      "PixelSpacing": [3.0, 3.0],
      "ProtocolName": "taken",
      "RepetitionTime": 2000.0,
      "Rows": 384,
      "SAR": 0.12118677635295,
      "SamplesPerPixel": 1,
      "ScanOptions": "FS",
      "ScanningSequence": "EP",
      "SequenceName": "*epfid2d1_64",
      "SequenceVariant": "SK",
      "SeriesDescription": "taken",
      "SeriesNumber": 7,
      "SeriesTime": "125011.751000",
      "SliceLocation": -24.877546230105,
      "SliceThickness": 3.0,
      "SmallestImagePixelValue": 0,
      "SoftwareVersions": "syngo MR D13D",
      "SpacingBetweenSlices": 3.7500000199299,
      "SpecificCharacterSet": "ISO_IR 100",
      "StudyID": "1",
      "StudyTime": "120140.594000",
      "TimeOfLastCalibration": ["123723.000000", "123723.000000"],
      "TransmitCoilName": "Body",
      "VariableFlipAngleFlag": "N",
      "WindowCenterWidthExplanation": "Algo1",
      "dBdt": 0.0},
    "slices": {}
  },
  "time": {
    "samples": {
      "AcquisitionNumber": [1, 2, 3, 4, 5, 6, 7, 8, 9, 10, 11, 12, 13, 14, 15, 16, 17, 18, 19, 20, 21, 22, 23, 24, 25, 26, 27, 28, 29, 30, 31, 32, 33, 34, 35, 36, 37, 38, 39, 40, 41, 42, 43, 44, 45, 46, 47, 48, 49, 50, 51, 52, 53, 54, 55, 56, 57, 58, 59, 60, 61, 62, 63, 64, 65, 66, 67, 68, 69, 70, 71, 72, 73, 74, 75, 76, 77, 78, 79, 80, 81, 82, 83, 84, 85, 86, 87, 88, 89, 90, 91, 92, 93, 94, 95, 96, 97, 98, 99, 100, 101, 102, 103, 104, 105, 106, 107, 108, 109, 110, 111, 112, 113, 114, 115, 116, 117, 118, 119, 120, 121, 122, 123, 124, 125, 126, 127, 128, 129, 130, 131, 132, 133, 134, 135, 136, 137, 138, 139, 140, 141, 142, 143, 144, 145, 146, 147, 148, 149, 150, 151, 152, 153, 154, 155],
      "AcquisitionTime": ["124925.280000", "124927.280000", "124929.280000", "124931.280000", "124933.280000", "124935.280000", "124937.280000", "124939.280000", "124941.280000", "124943.280000", "124945.280000", "124947.280000", "124949.280000", "124951.280000", "124953.280000", "124955.280000", "124957.280000", "124959.280000", "125001.280000", "125003.280000", "125005.280000", "125007.280000", "125009.280000", "125011.280000", "125013.280000", "125015.280000", "125017.280000", "125019.280000", "125021.280000", "125023.280000", "125025.280000", "125027.280000", "125029.280000", "125031.280000", "125033.280000", "125035.280000", "125037.280000", "125039.280000", "125041.280000", "125043.280000", "125045.280000", "125047.280000", "125049.280000", "125051.280000", "125053.280000", "125055.280000", "125057.280000", "125059.280000", "125101.280000", "125103.280000", "125105.280000", "125107.280000", "125109.280000", "125111.280000", "125113.280000", "125115.280000", "125117.280000", "125119.280000", "125121.280000", "125123.280000", "125125.280000", "125127.280000", "125129.280000", "125131.280000", "125133.280000", "125135.280000", "125137.280000", "125139.280000", "125141.280000", "125143.280000", "125145.280000", "125147.280000", "125149.280000", "125151.280000", "125153.280000", "125155.280000", "125157.280000", "125159.280000", "125201.280000", "125203.280000", "125205.280000", "125207.280000", "125209.280000", "125211.280000", "125213.280000", "125215.280000", "125217.280000", "125219.280000", "125221.280000", "125223.280000", "125225.280000", "125227.280000", "125229.280000", "125231.280000", "125233.280000", "125235.280000", "125237.280000", "125239.280000", "125241.280000", "125243.280000", "125245.280000", "125247.280000", "125249.280000", "125251.280000", "125253.280000", "125255.280000", "125257.280000", "125259.280000", "125301.280000", "125303.280000", "125305.280000", "125307.280000", "125309.280000", "125311.280000", "125313.280000", "125315.280000", "125317.280000", "125319.280000", "125321.280000", "125323.280000", "125325.280000", "125327.280000", "125329.280000", "125331.280000", "125333.280000", "125335.280000", "125337.280000", "125339.280000", "125341.280000", "125343.280000", "125345.280000", "125347.280000", "125349.280000", "125351.280000", "125353.280000", "125355.280000", "125357.280000", "125359.280000", "125401.280000", "125403.280000", "125405.280000", "125407.280000", "125409.280000", "125411.280000", "125413.280000", "125415.280000", "125417.280000", "125419.280000", "125421.280000", "125423.280000", "125425.280000", "125427.280000", "125429.280000", "125431.280000", "125433.280000"],
      "ContentTime": ["125011.755000", "125011.765000", "125011.768000", "125011.771000", "125011.773000", "125011.776000", "125011.779000", "125011.782000", "125011.785000", "125011.788000", "125011.791000", "125011.794000", "125011.797000", "125011.799000", "125011.802000", "125011.805000", "125011.808000", "125011.811000", "125011.814000", "125011.817000", "125011.820000", "125011.822000", "125051.749000", "125051.753000", "125051.756000", "125051.759000", "125051.762000", "125051.765000", "125051.767000", "125051.770000", "125051.773000", "125051.776000", "125051.779000", "125051.782000", "125051.784000", "125051.787000", "125051.790000", "125051.793000", "125051.796000", "125051.799000", "125051.802000", "125051.804000", "125131.748000", "125131.752000", "125131.755000", "125131.758000", "125131.760000", "125131.763000", "125131.766000", "125131.769000", "125131.772000", "125131.775000", "125131.778000", "125131.780000", "125131.783000", "125131.786000", "125131.789000", "125131.791000", "125131.794000", "125131.797000", "125131.800000", "125131.802000", "125211.749000", "125211.753000", "125211.756000", "125211.758000", "125211.761000", "125211.764000", "125211.767000", "125211.770000", "125211.773000", "125211.776000", "125211.779000", "125211.782000", "125211.785000", "125211.788000", "125211.790000", "125211.805000", "125211.808000", "125211.811000", "125211.814000", "125211.817000", "125251.749000", "125251.753000", "125251.756000", "125251.758000", "125251.761000", "125251.764000", "125251.767000", "125251.770000", "125251.773000", "125251.776000", "125251.779000", "125251.781000", "125251.784000", "125251.794000", "125251.797000", "125251.801000", "125251.803000", "125251.807000", "125251.810000", "125251.812000", "125331.749000", "125331.752000", "125331.755000", "125331.758000", "125331.761000", "125331.764000", "125331.767000", "125331.770000", "125331.772000", "125331.776000", "125331.779000", "125331.781000", "125331.784000", "125331.787000", "125331.790000", "125331.793000", "125331.795000", "125331.798000", "125331.801000", "125331.804000", "125411.747000", "125411.750000", "125411.753000", "125411.756000", "125411.758000", "125411.761000", "125411.764000", "125411.768000", "125411.771000", "125411.774000", "125411.777000", "125411.780000", "125411.783000", "125411.786000", "125411.789000", "125411.797000", "125411.800000", "125411.803000", "125411.806000", "125411.808000", "125437.387000", "125437.391000", "125437.393000", "125437.396000", "125437.399000", "125437.402000", "125437.404000", "125437.407000", "125437.410000", "125437.413000", "125437.416000", "125437.419000", "125437.422000"],
      "InstanceCreationTime": ["125011.755000", "125011.765000", "125011.768000", "125011.771000", "125011.773000", "125011.776000", "125011.779000", "125011.782000", "125011.785000", "125011.788000", "125011.791000", "125011.794000", "125011.797000", "125011.799000", "125011.802000", "125011.805000", "125011.808000", "125011.811000", "125011.814000", "125011.817000", "125011.820000", "125011.822000", "125051.749000", "125051.753000", "125051.756000", "125051.759000", "125051.762000", "125051.765000", "125051.767000", "125051.770000", "125051.773000", "125051.776000", "125051.779000", "125051.782000", "125051.784000", "125051.787000", "125051.790000", "125051.793000", "125051.796000", "125051.799000", "125051.802000", "125051.804000", "125131.748000", "125131.752000", "125131.755000", "125131.758000", "125131.760000", "125131.763000", "125131.766000", "125131.769000", "125131.772000", "125131.775000", "125131.778000", "125131.780000", "125131.783000", "125131.786000", "125131.789000", "125131.791000", "125131.794000", "125131.797000", "125131.800000", "125131.802000", "125211.749000", "125211.753000", "125211.756000", "125211.758000", "125211.761000", "125211.764000", "125211.767000", "125211.770000", "125211.773000", "125211.776000", "125211.779000", "125211.782000", "125211.785000", "125211.788000", "125211.790000", "125211.805000", "125211.808000", "125211.811000", "125211.814000", "125211.817000", "125251.749000", "125251.753000", "125251.756000", "125251.758000", "125251.761000", "125251.764000", "125251.767000", "125251.770000", "125251.773000", "125251.776000", "125251.779000", "125251.781000", "125251.784000", "125251.794000", "125251.797000", "125251.801000", "125251.803000", "125251.807000", "125251.810000", "125251.812000", "125331.749000", "125331.752000", "125331.755000", "125331.758000", "125331.761000", "125331.764000", "125331.767000", "125331.770000", "125331.772000", "125331.776000", "125331.779000", "125331.781000", "125331.784000", "125331.787000", "125331.790000", "125331.793000", "125331.795000", "125331.798000", "125331.801000", "125331.804000", "125411.747000", "125411.750000", "125411.753000", "125411.756000", "125411.758000", "125411.761000", "125411.764000", "125411.768000", "125411.771000", "125411.774000", "125411.777000", "125411.780000", "125411.783000", "125411.786000", "125411.789000", "125411.797000", "125411.800000", "125411.803000", "125411.806000", "125411.808000", "125437.387000", "125437.391000", "125437.393000", "125437.396000", "125437.399000", "125437.402000", "125437.404000", "125437.407000", "125437.410000", "125437.413000", "125437.416000", "125437.419000", "125437.422000"],
      "InstanceNumber": [1, 2, 3, 4, 5, 6, 7, 8, 9, 10, 11, 12, 13, 14, 15, 16, 17, 18, 19, 20, 21, 22, 23, 24, 25, 26, 27, 28, 29, 30, 31, 32, 33, 34, 35, 36, 37, 38, 39, 40, 41, 42, 43, 44, 45, 46, 47, 48, 49, 50, 51, 52, 53, 54, 55, 56, 57, 58, 59, 60, 61, 62, 63, 64, 65, 66, 67, 68, 69, 70, 71, 72, 73, 74, 75, 76, 77, 78, 79, 80, 81, 82, 83, 84, 85, 86, 87, 88, 89, 90, 91, 92, 93, 94, 95, 96, 97, 98, 99, 100, 101, 102, 103, 104, 105, 106, 107, 108, 109, 110, 111, 112, 113, 114, 115, 116, 117, 118, 119, 120, 121, 122, 123, 124, 125, 126, 127, 128, 129, 130, 131, 132, 133, 134, 135, 136, 137, 138, 139, 140, 141, 142, 143, 144, 145, 146, 147, 148, 149, 150, 151, 152, 153, 154, 155],
      "LargestImagePixelValue": [814, 974, 1101, 830, 886, 1062, 790, 820, 814, 909, 1058, 783, 892, 991, 816, 813, 978, 812, 851, 985, 837, 783, 870, 792, 866, 828, 871, 1043, 780, 811, 885, 759, 801, 862, 765, 793, 798, 781, 877, 906, 842, 788, 918, 750, 847, 972, 800, 801, 908, 794, 816, 1080, 798, 787, 969, 774, 850, 982, 765, 893, 817, 839, 829, 836, 910, 760, 905, 911, 811, 822, 872, 795, 821, 906, 804, 793, 1014, 779, 883, 875, 924, 810, 797, 876, 898, 831, 775, 863, 888, 768, 786, 876, 818, 788, 882, 887, 840, 781, 801, 822, 849, 837, 803, 818, 929, 784, 900, 984, 1081, 859, 776, 908, 836, 801, 964, 919, 1001, 824, 763, 749, 822, 807, 779, 875, 893, 909, 884, 755, 780, 893, 890, 785, 799, 842, 844, 842, 765, 870, 863, 793, 953, 889, 916, 910, 773, 866, 879, 805, 805, 885, 902, 940, 854, 796, 826],
      "WindowCenter": [428.0, 429.0, 428.0, 425.0, 425.0, 426.0, 424.0, 424.0, 425.0, 427.0, 426.0, 423.0, 424.0, 425.0, 423.0, 424.0, 425.0, 424.0, 425.0, 425.0, 424.0, 423.0, 424.0, 424.0, 425.0, 425.0, 425.0, 426.0, 424.0, 425.0, 426.0, 424.0, 425.0, 425.0, 424.0, 425.0, 425.0, 426.0, 426.0, 426.0, 425.0, 425.0, 427.0, 426.0, 426.0, 426.0, 425.0, 425.0, 426.0, 425.0, 426.0, 428.0, 425.0, 424.0, 426.0, 425.0, 426.0, 426.0, 424.0, 425.0, 425.0, 425.0, 425.0, 425.0, 425.0, 424.0, 425.0, 424.0, 423.0, 423.0, 424.0, 424.0, 424.0, 424.0, 424.0, 425.0, 427.0, 424.0, 424.0, 424.0, 424.0, 424.0, 424.0, 425.0, 425.0, 424.0, 424.0, 425.0, 426.0, 424.0, 424.0, 426.0, 426.0, 426.0, 426.0, 426.0, 426.0, 425.0, 425.0, 425.0, 425.0, 427.0, 428.0, 428.0, 429.0, 428.0, 428.0, 427.0, 426.0, 424.0, 423.0, 425.0, 425.0, 424.0, 425.0, 424.0, 425.0, 423.0, 423.0, 423.0, 425.0, 426.0, 425.0, 425.0, 425.0, 425.0, 424.0, 425.0, 426.0, 426.0, 425.0, 424.0, 425.0, 425.0, 425.0, 425.0, 426.0, 428.0, 428.0, 427.0, 427.0, 425.0, 426.0, 426.0, 426.0, 426.0, 425.0, 426.0, 427.0, 427.0, 427.0, 426.0, 425.0, 425.0, 425.0],
      "WindowWidth": [902.0, 902.0, 901.0, 895.0, 895.0, 897.0, 894.0, 894.0, 895.0, 898.0, 897.0, 893.0, 894.0, 894.0, 892.0, 893.0, 894.0, 894.0, 895.0, 895.0, 893.0, 892.0, 893.0, 894.0, 896.0, 895.0, 896.0, 897.0, 894.0, 895.0, 897.0, 894.0, 895.0, 896.0, 895.0, 895.0, 896.0, 897.0, 898.0, 897.0, 896.0, 896.0, 900.0, 897.0, 897.0, 898.0, 895.0, 895.0, 897.0, 896.0, 898.0, 901.0, 896.0, 894.0, 897.0, 897.0, 897.0, 898.0, 895.0, 896.0, 895.0, 895.0, 895.0, 895.0, 896.0, 894.0, 895.0, 894.0, 892.0, 892.0, 894.0, 894.0, 894.0, 894.0, 894.0, 895.0, 899.0, 895.0, 894.0, 893.0, 894.0, 893.0, 894.0, 895.0, 895.0, 895.0, 894.0, 896.0, 897.0, 895.0, 894.0, 897.0, 898.0, 897.0, 897.0, 897.0, 897.0, 897.0, 897.0, 896.0, 896.0, 899.0, 901.0, 901.0, 902.0, 901.0, 900.0, 898.0, 897.0, 894.0, 893.0, 896.0, 896.0, 894.0, 896.0, 894.0, 895.0, 892.0, 892.0, 893.0, 896.0, 898.0, 896.0, 896.0, 895.0, 895.0, 894.0, 896.0, 897.0, 897.0, 896.0, 895.0, 896.0, 896.0, 895.0, 896.0, 898.0, 902.0, 902.0, 899.0, 898.0, 895.0, 897.0, 897.0, 897.0, 897.0, 896.0, 897.0, 899.0, 899.0, 898.0, 898.0, 896.0, 896.0, 897.0]
    },
    "slices": {}
  }
}