{
  "AcquisitionMatrixPE": 64,
  "AcquisitionNumber": 1,
  "AcquisitionTime": "14:00:21.157500",
  "BandwidthPerPixelPhaseEncode": 40.064,
  "BaseResolution": 64,
  "BodyPartExamined": "BRAIN",
  "ConsistencyInfo": "N4_VD13D_LATEST_20130810",
  "ConversionSoftware": "dcm2niix",
  "ConversionSoftwareVersion": "v1.0.20191031",
  "DerivedVendorReportedEchoSpacing": 0.000780002,
  "DeviceSerialNumber": "67007",
  "DwellTime": 5.3e-06,
  "EchoTime": 0.03,
  "EchoTrainLength": 31,
  "EffectiveEchoSpacing": 0.000390001,
  "FlipAngle": 75,
  "ImageOrientationPatientDICOM": [0.999163, 0.0403891, -0.00647688, -0.0401305, 0.998545, 0.0360291],
  "ImageType": [
    "ORIGINAL",
    "PRIMARY",
    "M",
    "ND",
    "NORM",
    "MOSAIC"
],
  "ImagingFrequency": 123.211,
  "InPlanePhaseEncodingDirectionDICOM": "ROW",
  "InstitutionAddress": "Perth_Drive_100_London_Ontario_CA_N6A_5K8",
  "InstitutionName": "Robarts-CFMM",
  "InstitutionalDepartmentName": "CFMM",
  "MRAcquisitionType": "2D",
  "MagneticFieldStrength": 3,
  "Manufacturer": "Siemens",
  "ManufacturersModelName": "Prisma_fit",
  "Modality": "MR",
  "ParallelReductionFactorInPlane": 2,
  "PartialFourier": 1,
  "PatientPosition": "HFS",
  "PercentPhaseFOV": 100,
  "PhaseEncodingDirection": "i",
  "PhaseEncodingSteps": 63,
  "PhaseResolution": 1,
  "PixelBandwidth": 1475,
  "ProcedureStepDescription": "Owen_Naci",
  "ProtocolName": "Resting_State",
  "PulseSequenceDetails": "%SiemensSeq%_ep2d_bold",
  "ReceiveCoilActiveElements": "HEA;HEP",
  "ReceiveCoilName": "Head_32",
  "ReconMatrixPE": 64,
  "RefLinesPE": 24,
  "RepetitionTime": 2,
  "SAR": 0.121412,
  "ScanOptions": "FS",
  "ScanningSequence": "EP",
  "SequenceName": "_epfid2d1_64",
  "SequenceVariant": "SK",
  "SeriesDescription": "Resting_State",
  "SeriesNumber": 22,
  "ShimSetting": [5234, -6081, -3885, 371, -4, 186, 75, -1],
  "SliceThickness": 3,
  "SliceTiming": [1.92, 1.86, 1.8, 1.74, 1.68, 1.62, 1.56, 1.5, 1.44, 1.38, 1.32, 1.26, 1.2, 1.14, 1.08, 1.02, 0.96, 0.9, 0.84, 0.78, 0.72, 0.66, 0.6, 0.54, 0.48, 0.42, 0.36, 0.3, 0.24, 0.18, 0.12, 0.06, 0],
  "SoftwareVersions": "syngo_MR_D13D",
  "SpacingBetweenSlices": 3.75,
  "StationName": "AWP67007",
  "TaskName": "rest",
  "TotalReadoutTime": 0.0245701,
  "TxRefAmp": 268.999,
  "dcmmeta_affine": [
    [-2.9974892139434814, -0.1203915998339653, -0.02970988303422928, 101.68151092529297],
    [-0.12116724252700806, 2.995634078979492, 0.1340213268995285, -70.62848663330078],
    [-0.01943063735961914, -0.10808729380369186, 3.7474865913391113, -21.562219619750977],
    [0.0, 0.0, 0.0, 1.0]
],
  "dcmmeta_reorient_transform": [
    [0.0, -1.0, 0.0, 63.0],
    [1.0, 0.0, 0.0, 0.0],
    [0.0, 0.0, 1.0, 0.0],
    [0.0, 0.0, 0.0, 1.0]
],
  "dcmmeta_shape": [64, 64, 33, 256],
  "dcmmeta_slice_dim": 2,
  "dcmmeta_version": 0.6,
  "global": {
    "const": {
      "AcquisitionMatrix": [0, 64, 64, 0],
      "AngioFlag": "N",
      "BitsAllocated": 16,
      "BitsStored": 12,
      "BodyPartExamined": "BRAIN",
      "Columns": 384,
      "EchoNumbers": 1,
      "EchoTime": 30.0,
      "EchoTrainLength": 31,
      "FlipAngle": 75.0,
      "HighBit": 11,
      "ImageOrientationPatient": [0.99916303583197, 0.04038908097244, -0.0064768792826, -0.0401305329621, 0.99854466323311, 0.03602909730837],
      "ImagePositionPatient": [-554.43244362836, -616.7846509019, -42.556783698562],
      "ImageType": [
        "ORIGINAL",
        "PRIMARY",
        "M",
        "ND",
        "NORM",
        "MOSAIC"
],
      "ImagedNucleus": "1H",
      "ImagingFrequency": 123.211126,
      "InPlanePhaseEncodingDirection": "ROW",
      "MRAcquisitionType": "2D",
      "MagneticFieldStrength": 3.0,
      "Manufacturer": "SIEMENS",
      "ManufacturerModelName": "Prisma_fit",
      "Modality": "MR",
      "NumberOfAverages": 1.0,
      "NumberOfPhaseEncodingSteps": 63,
      "PercentPhaseFieldOfView": 100.0,
      "PercentSampling": 100.0,
      "PerformedProcedureStepStartTime": "120140.640000",
      "PhotometricInterpretation": "MONOCHROME2",
      "PixelBandwidth": 1475.0,
      "PixelRepresentation": 0,
      "PixelSpacing": [3.0, 3.0],
      "ProtocolName": "Resting State",
      "RepetitionTime": 2000.0,
      "Rows": 384,
      "SAR": 0.12141194966242,
      "SamplesPerPixel": 1,
      "ScanOptions": "FS",
      "ScanningSequence": "EP",
      "SequenceName": "*epfid2d1_64",
      "SequenceVariant": "SK",
      "SeriesDescription": "Resting State",
      "SeriesNumber": 22,
      "SeriesTime": "140111.749000",
      "SliceLocation": -24.877546230105,
      "SliceThickness": 3.0,
      "SmallestImagePixelValue": 0,
      "SoftwareVersions": "syngo MR D13D",
      "SpacingBetweenSlices": 3.7500000199299,
      "SpecificCharacterSet": "ISO_IR 100",
      "StudyID": "1",
      "StudyTime": "120140.594000",
      "TimeOfLastCalibration": ["123723.000000", "123723.000000"],
      "TransmitCoilName": "Body",
      "VariableFlipAngleFlag": "N",
      "WindowCenterWidthExplanation": "Algo1",
      "dBdt": 0.0},
    "slices": {}
  },
  "time": {
    "samples": {
      "AcquisitionNumber": [1, 2, 3, 4, 5, 6, 7, 8, 9, 10, 11, 12, 13, 14, 15, 16, 17, 18, 19, 20, 21, 22, 23, 24, 25, 26, 27, 28, 29, 30, 31, 32, 33, 34, 35, 36, 37, 38, 39, 40, 41, 42, 43, 44, 45, 46, 47, 48, 49, 50, 51, 52, 53, 54, 55, 56, 57, 58, 59, 60, 61, 62, 63, 64, 65, 66, 67, 68, 69, 70, 71, 72, 73, 74, 75, 76, 77, 78, 79, 80, 81, 82, 83, 84, 85, 86, 87, 88, 89, 90, 91, 92, 93, 94, 95, 96, 97, 98, 99, 100, 101, 102, 103, 104, 105, 106, 107, 108, 109, 110, 111, 112, 113, 114, 115, 116, 117, 118, 119, 120, 121, 122, 123, 124, 125, 126, 127, 128, 129, 130, 131, 132, 133, 134, 135, 136, 137, 138, 139, 140, 141, 142, 143, 144, 145, 146, 147, 148, 149, 150, 151, 152, 153, 154, 155, 156, 157, 158, 159, 160, 161, 162, 163, 164, 165, 166, 167, 168, 169, 170, 171, 172, 173, 174, 175, 176, 177, 178, 179, 180, 181, 182, 183, 184, 185, 186, 187, 188, 189, 190, 191, 192, 193, 194, 195, 196, 197, 198, 199, 200, 201, 202, 203, 204, 205, 206, 207, 208, 209, 210, 211, 212, 213, 214, 215, 216, 217, 218, 219, 220, 221, 222, 223, 224, 225, 226, 227, 228, 229, 230, 231, 232, 233, 234, 235, 236, 237, 238, 239, 240, 241, 242, 243, 244, 245, 246, 247, 248, 249, 250, 251, 252, 253, 254, 255, 256],
      "AcquisitionTime": ["140021.157500", "140023.157500", "140025.157500", "140027.157500", "140029.157500", "140031.157500", "140033.157500", "140035.157500", "140037.157500", "140039.157500", "140041.157500", "140043.157500", "140045.157500", "140047.157500", "140049.157500", "140051.157500", "140053.157500", "140055.157500", "140057.157500", "140059.157500", "140101.157500", "140103.157500", "140105.157500", "140107.157500", "140109.157500", "140111.157500", "140113.157500", "140115.157500", "140117.157500", "140119.157500", "140121.157500", "140123.157500", "140125.157500", "140127.160000", "140129.160000", "140131.160000", "140133.160000", "140135.160000", "140137.160000", "140139.160000", "140141.160000", "140143.160000", "140145.160000", "140147.160000", "140149.160000", "140151.160000", "140153.160000", "140155.160000", "140157.160000", "140159.160000", "140201.160000", "140203.160000", "140205.160000", "140207.160000", "140209.160000", "140211.160000", "140213.160000", "140215.160000", "140217.160000", "140219.160000", "140221.160000", "140223.160000", "140225.160000", "140227.160000", "140229.160000", "140231.160000", "140233.160000", "140235.160000", "140237.160000", "140239.160000", "140241.160000", "140243.160000", "140245.160000", "140247.160000", "140249.160000", "140251.160000", "140253.160000", "140255.160000", "140257.160000", "140259.160000", "140301.160000", "140303.160000", "140305.160000", "140307.160000", "140309.160000", "140311.160000", "140313.160000", "140315.160000", "140317.160000", "140319.160000", "140321.160000", "140323.160000", "140325.160000", "140327.160000", "140329.160000", "140331.160000", "140333.160000", "140335.160000", "140337.160000", "140339.160000", "140341.160000", "140343.160000", "140345.160000", "140347.160000", "140349.160000", "140351.160000", "140353.160000", "140355.160000", "140357.160000", "140359.160000", "140401.160000", "140403.160000", "140405.160000", "140407.160000", "140409.160000", "140411.160000", "140413.160000", "140415.160000", "140417.160000", "140419.160000", "140421.160000", "140423.160000", "140425.160000", "140427.160000", "140429.160000", "140431.160000", "140433.160000", "140435.160000", "140437.160000", "140439.160000", "140441.160000", "140443.160000", "140445.160000", "140447.160000", "140449.160000", "140451.160000", "140453.160000", "140455.160000", "140457.160000", "140459.160000", "140501.160000", "140503.160000", "140505.160000", "140507.160000", "140509.160000", "140511.160000", "140513.160000", "140515.160000", "140517.160000", "140519.160000", "140521.160000", "140523.160000", "140525.160000", "140527.160000", "140529.160000", "140531.160000", "140533.160000", "140535.160000", "140537.160000", "140539.160000", "140541.160000", "140543.160000", "140545.160000", "140547.160000", "140549.160000", "140551.160000", "140553.160000", "140555.160000", "140557.160000", "140559.160000", "140601.160000", "140603.160000", "140605.160000", "140607.160000", "140609.160000", "140611.160000", "140613.160000", "140615.160000", "140617.160000", "140619.160000", "140621.160000", "140623.160000", "140625.160000", "140627.160000", "140629.160000", "140631.160000", "140633.160000", "140635.160000", "140637.160000", "140639.160000", "140641.160000", "140643.160000", "140645.160000", "140647.160000", "140649.160000", "140651.160000", "140653.160000", "140655.160000", "140657.160000", "140659.160000", "140701.160000", "140703.160000", "140705.160000", "140707.160000", "140709.160000", "140711.160000", "140713.160000", "140715.160000", "140717.160000", "140719.160000", "140721.160000", "140723.160000", "140725.160000", "140727.160000", "140729.160000", "140731.160000", "140733.160000", "140735.160000", "140737.160000", "140739.160000", "140741.160000", "140743.160000", "140745.160000", "140747.160000", "140749.160000", "140751.160000", "140753.160000", "140755.160000", "140757.160000", "140759.160000", "140801.160000", "140803.160000", "140805.160000", "140807.160000", "140809.160000", "140811.160000", "140813.160000", "140815.160000", "140817.160000", "140819.160000", "140821.160000", "140823.160000", "140825.160000", "140827.160000", "140829.160000", "140831.160000", "140833.160000", "140835.160000", "140837.160000", "140839.160000", "140841.160000", "140843.160000", "140845.160000", "140847.160000", "140849.160000", "140851.160000"],
      "ContentTime": ["140111.754000", "140111.758000", "140111.760000", "140111.763000", "140111.766000", "140111.769000", "140111.772000", "140111.775000", "140111.778000", "140111.781000", "140111.783000", "140111.791000", "140111.795000", "140111.798000", "140111.800000", "140111.803000", "140111.806000", "140111.809000", "140111.812000", "140111.815000", "140111.818000", "140111.821000", "140111.824000", "140111.826000", "140151.749000", "140151.752000", "140151.756000", "140151.758000", "140151.761000", "140151.764000", "140151.767000", "140151.770000", "140151.772000", "140151.775000", "140151.778000", "140151.781000", "140151.784000", "140151.787000", "140151.790000", "140151.792000", "140151.795000", "140151.798000", "140151.801000", "140151.804000", "140231.749000", "140231.755000", "140231.758000", "140231.761000", "140231.764000", "140231.767000", "140231.770000", "140231.773000", "140231.776000", "140231.779000", "140231.782000", "140231.785000", "140231.787000", "140231.790000", "140231.793000", "140231.796000", "140231.799000", "140231.802000", "140231.805000", "140231.808000", "140311.749000", "140311.753000", "140311.756000", "140311.759000", "140311.762000", "140311.765000", "140311.767000", "140311.770000", "140311.773000", "140311.776000", "140311.779000", "140311.782000", "140311.785000", "140311.788000", "140311.790000", "140311.793000", "140311.796000", "140311.799000", "140311.802000", "140311.805000", "140351.748000", "140351.752000", "140351.755000", "140351.758000", "140351.761000", "140351.764000", "140351.766000", "140351.769000", "140351.772000", "140351.775000", "140351.778000", "140351.781000", "140351.784000", "140351.787000", "140351.789000", "140351.792000", "140351.795000", "140351.798000", "140351.801000", "140351.804000", "140431.749000", "140431.753000", "140431.756000", "140431.759000", "140431.761000", "140431.764000", "140431.767000", "140431.770000", "140431.773000", "140431.776000", "140431.779000", "140431.782000", "140431.785000", "140431.788000", "140431.791000", "140431.794000", "140431.796000", "140431.802000", "140431.804000", "140431.807000", "140511.749000", "140511.758000", "140511.761000", "140511.764000", "140511.766000", "140511.770000", "140511.773000", "140511.776000", "140511.779000", "140511.782000", "140511.785000", "140511.788000", "140511.790000", "140511.793000", "140511.796000", "140511.799000", "140511.802000", "140511.805000", "140511.808000", "140511.811000", "140551.748000", "140551.752000", "140551.755000", "140551.758000", "140551.760000", "140551.764000", "140551.766000", "140551.769000", "140551.772000", "140551.775000", "140551.778000", "140551.780000", "140551.783000", "140551.786000", "140551.789000", "140551.792000", "140551.795000", "140551.798000", "140551.801000", "140551.804000", "140631.749000", "140631.752000", "140631.755000", "140631.758000", "140631.761000", "140631.764000", "140631.767000", "140631.770000", "140631.773000", "140631.776000", "140631.779000", "140631.782000", "140631.785000", "140631.787000", "140631.790000", "140631.793000", "140631.796000", "140631.799000", "140631.802000", "140631.805000", "140711.747000", "140711.751000", "140711.753000", "140711.756000", "140711.760000", "140711.762000", "140711.765000", "140711.768000", "140711.771000", "140711.774000", "140711.777000", "140711.780000", "140711.783000", "140711.786000", "140711.789000", "140711.791000", "140711.794000", "140711.797000", "140711.800000", "140711.803000", "140751.749000", "140751.753000", "140751.756000", "140751.759000", "140751.765000", "140751.768000", "140751.770000", "140751.773000", "140751.777000", "140751.780000", "140751.782000", "140751.785000", "140751.788000", "140751.791000", "140751.794000", "140751.797000", "140751.800000", "140751.803000", "140751.806000", "140751.808000", "140831.748000", "140831.751000", "140831.754000", "140831.757000", "140831.761000", "140831.764000", "140831.767000", "140831.770000", "140831.773000", "140831.775000", "140831.778000", "140831.781000", "140831.784000", "140831.787000", "140831.790000", "140831.793000", "140831.796000", "140831.798000", "140831.801000", "140831.804000", "140854.410000", "140854.413000", "140854.417000", "140854.420000", "140854.423000", "140854.426000", "140854.429000", "140854.432000", "140854.435000", "140854.441000", "140854.446000", "140854.450000"],
      "InstanceCreationTime": ["140111.754000", "140111.758000", "140111.760000", "140111.763000", "140111.766000", "140111.769000", "140111.772000", "140111.775000", "140111.778000", "140111.781000", "140111.783000", "140111.791000", "140111.795000", "140111.798000", "140111.800000", "140111.803000", "140111.806000", "140111.809000", "140111.812000", "140111.815000", "140111.818000", "140111.821000", "140111.824000", "140111.826000", "140151.749000", "140151.752000", "140151.756000", "140151.758000", "140151.761000", "140151.764000", "140151.767000", "140151.770000", "140151.772000", "140151.775000", "140151.778000", "140151.781000", "140151.784000", "140151.787000", "140151.790000", "140151.792000", "140151.795000", "140151.798000", "140151.801000", "140151.804000", "140231.749000", "140231.755000", "140231.758000", "140231.761000", "140231.764000", "140231.767000", "140231.770000", "140231.773000", "140231.776000", "140231.779000", "140231.782000", "140231.785000", "140231.787000", "140231.790000", "140231.793000", "140231.796000", "140231.799000", "140231.802000", "140231.805000", "140231.808000", "140311.749000", "140311.753000", "140311.756000", "140311.759000", "140311.762000", "140311.765000", "140311.767000", "140311.770000", "140311.773000", "140311.776000", "140311.779000", "140311.782000", "140311.785000", "140311.788000", "140311.790000", "140311.793000", "140311.796000", "140311.799000", "140311.802000", "140311.805000", "140351.748000", "140351.752000", "140351.755000", "140351.758000", "140351.761000", "140351.764000", "140351.766000", "140351.769000", "140351.772000", "140351.775000", "140351.778000", "140351.781000", "140351.784000", "140351.787000", "140351.789000", "140351.792000", "140351.795000", "140351.798000", "140351.801000", "140351.804000", "140431.749000", "140431.753000", "140431.756000", "140431.759000", "140431.761000", "140431.764000", "140431.767000", "140431.770000", "140431.773000", "140431.776000", "140431.779000", "140431.782000", "140431.785000", "140431.788000", "140431.791000", "140431.794000", "140431.796000", "140431.802000", "140431.804000", "140431.807000", "140511.749000", "140511.758000", "140511.761000", "140511.764000", "140511.766000", "140511.770000", "140511.773000", "140511.776000", "140511.779000", "140511.782000", "140511.785000", "140511.788000", "140511.790000", "140511.793000", "140511.796000", "140511.799000", "140511.802000", "140511.805000", "140511.808000", "140511.811000", "140551.748000", "140551.752000", "140551.755000", "140551.758000", "140551.760000", "140551.764000", "140551.766000", "140551.769000", "140551.772000", "140551.775000", "140551.778000", "140551.780000", "140551.783000", "140551.786000", "140551.789000", "140551.792000", "140551.795000", "140551.798000", "140551.801000", "140551.804000", "140631.749000", "140631.752000", "140631.755000", "140631.758000", "140631.761000", "140631.764000", "140631.767000", "140631.770000", "140631.773000", "140631.776000", "140631.779000", "140631.782000", "140631.785000", "140631.787000", "140631.790000", "140631.793000", "140631.796000", "140631.799000", "140631.802000", "140631.805000", "140711.747000", "140711.751000", "140711.753000", "140711.756000", "140711.760000", "140711.762000", "140711.765000", "140711.768000", "140711.771000", "140711.774000", "140711.777000", "140711.780000", "140711.783000", "140711.786000", "140711.789000", "140711.791000", "140711.794000", "140711.797000", "140711.800000", "140711.803000", "140751.749000", "140751.753000", "140751.756000", "140751.759000", "140751.765000", "140751.768000", "140751.770000", "140751.773000", "140751.777000", "140751.780000", "140751.782000", "140751.785000", "140751.788000", "140751.791000", "140751.794000", "140751.797000", "140751.800000", "140751.803000", "140751.806000", "140751.808000", "140831.748000", "140831.751000", "140831.754000", "140831.757000", "140831.761000", "140831.764000", "140831.767000", "140831.770000", "140831.773000", "140831.775000", "140831.778000", "140831.781000", "140831.784000", "140831.787000", "140831.790000", "140831.793000", "140831.796000", "140831.798000", "140831.801000", "140831.804000", "140854.410000", "140854.413000", "140854.417000", "140854.420000", "140854.423000", "140854.426000", "140854.429000", "140854.432000", "140854.435000", "140854.441000", "140854.446000", "140854.450000"],
      "InstanceNumber": [1, 2, 3, 4, 5, 6, 7, 8, 9, 10, 11, 12, 13, 14, 15, 16, 17, 18, 19, 20, 21, 22, 23, 24, 25, 26, 27, 28, 29, 30, 31, 32, 33, 34, 35, 36, 37, 38, 39, 40, 41, 42, 43, 44, 45, 46, 47, 48, 49, 50, 51, 52, 53, 54, 55, 56, 57, 58, 59, 60, 61, 62, 63, 64, 65, 66, 67, 68, 69, 70, 71, 72, 73, 74, 75, 76, 77, 78, 79, 80, 81, 82, 83, 84, 85, 86, 87, 88, 89, 90, 91, 92, 93, 94, 95, 96, 97, 98, 99, 100, 101, 102, 103, 104, 105, 106, 107, 108, 109, 110, 111, 112, 113, 114, 115, 116, 117, 118, 119, 120, 121, 122, 123, 124, 125, 126, 127, 128, 129, 130, 131, 132, 133, 134, 135, 136, 137, 138, 139, 140, 141, 142, 143, 144, 145, 146, 147, 148, 149, 150, 151, 152, 153, 154, 155, 156, 157, 158, 159, 160, 161, 162, 163, 164, 165, 166, 167, 168, 169, 170, 171, 172, 173, 174, 175, 176, 177, 178, 179, 180, 181, 182, 183, 184, 185, 186, 187, 188, 189, 190, 191, 192, 193, 194, 195, 196, 197, 198, 199, 200, 201, 202, 203, 204, 205, 206, 207, 208, 209, 210, 211, 212, 213, 214, 215, 216, 217, 218, 219, 220, 221, 222, 223, 224, 225, 226, 227, 228, 229, 230, 231, 232, 233, 234, 235, 236, 237, 238, 239, 240, 241, 242, 243, 244, 245, 246, 247, 248, 249, 250, 251, 252, 253, 254, 255, 256],
      "LargestImagePixelValue": [893, 842, 959, 755, 955, 757, 896, 727, 985, 800, 759, 808, 820, 802, 762, 846, 803, 825, 849, 829, 742, 871, 899, 811, 760, 887, 884, 818, 786, 790, 813, 755, 744, 807, 803, 780, 780, 773, 778, 787, 785, 778, 781, 881, 910, 785, 996, 844, 855, 770, 932, 814, 849, 753, 896, 1034, 786, 887, 898, 852, 808, 736, 864, 831, 897, 817, 847, 881, 855, 840, 749, 738, 813, 837, 802, 773, 829, 782, 835, 923, 751, 924, 936, 814, 776, 849, 834, 918, 918, 765, 901, 780, 958, 807, 986, 775, 810, 878, 876, 972, 852, 791, 869, 870, 906, 742, 800, 831, 806, 797, 818, 863, 981, 786, 996, 803, 888, 825, 783, 885, 890, 736, 756, 874, 838, 739, 802, 782, 798, 839, 857, 835, 778, 800, 786, 799, 880, 837, 838, 798, 737, 791, 918, 793, 799, 1051, 763, 965, 912, 956, 846, 753, 787, 797, 783, 779, 776, 831, 853, 828, 781, 740, 752, 891, 887, 885, 881, 867, 881, 809, 783, 727, 803, 747, 766, 851, 857, 851, 852, 848, 819, 876, 828, 772, 820, 781, 925, 940, 766, 897, 821, 797, 789, 721, 764, 763, 872, 800, 904, 830, 820, 910, 791, 958, 882, 868, 768, 801, 867, 954, 910, 808, 741, 766, 812, 862, 835, 774, 777, 785, 768, 751, 751, 790, 780, 853, 835, 830, 817, 884, 863, 1124, 815, 789, 751, 757, 785, 764, 770, 929, 921, 943, 900, 736, 916, 900, 896, 773, 841, 779, 754, 777, 741, 766, 781, 769],
      "WindowCenter": [422.0, 420.0, 421.0, 420.0, 422.0, 420.0, 421.0, 420.0, 421.0, 418.0, 419.0, 419.0, 420.0, 421.0, 421.0, 421.0, 420.0, 422.0, 423.0, 422.0, 420.0, 422.0, 421.0, 421.0, 422.0, 421.0, 421.0, 421.0, 421.0, 420.0, 421.0, 420.0, 421.0, 422.0, 422.0, 422.0, 421.0, 422.0, 423.0, 423.0, 423.0, 422.0, 422.0, 424.0, 423.0, 421.0, 424.0, 422.0, 422.0, 420.0, 422.0, 421.0, 422.0, 421.0, 422.0, 423.0, 420.0, 420.0, 420.0, 420.0, 419.0, 420.0, 421.0, 421.0, 421.0, 420.0, 422.0, 421.0, 420.0, 419.0, 419.0, 419.0, 421.0, 422.0, 421.0, 421.0, 421.0, 421.0, 422.0, 422.0, 420.0, 421.0, 421.0, 420.0, 420.0, 421.0, 421.0, 422.0, 420.0, 419.0, 420.0, 419.0, 421.0, 419.0, 421.0, 419.0, 421.0, 421.0, 420.0, 420.0, 419.0, 420.0, 420.0, 419.0, 420.0, 418.0, 418.0, 419.0, 422.0, 422.0, 421.0, 420.0, 419.0, 420.0, 420.0, 417.0, 419.0, 418.0, 419.0, 420.0, 420.0, 418.0, 419.0, 421.0, 420.0, 419.0, 421.0, 420.0, 421.0, 421.0, 421.0, 421.0, 421.0, 421.0, 421.0, 421.0, 424.0, 423.0, 421.0, 421.0, 420.0, 420.0, 422.0, 421.0, 421.0, 423.0, 419.0, 419.0, 419.0, 420.0, 420.0, 419.0, 420.0, 420.0, 419.0, 420.0, 421.0, 422.0, 422.0, 421.0, 421.0, 419.0, 420.0, 422.0, 421.0, 421.0, 421.0, 422.0, 421.0, 419.0, 419.0, 419.0, 420.0, 420.0, 421.0, 421.0, 420.0, 420.0, 420.0, 419.0, 420.0, 421.0, 421.0, 421.0, 420.0, 420.0, 422.0, 422.0, 419.0, 420.0, 419.0, 420.0, 421.0, 421.0, 422.0, 422.0, 422.0, 421.0, 423.0, 422.0, 421.0, 420.0, 418.0, 420.0, 420.0, 419.0, 418.0, 419.0, 420.0, 420.0, 419.0, 417.0, 417.0, 418.0, 419.0, 419.0, 419.0, 419.0, 419.0, 420.0, 420.0, 420.0, 420.0, 422.0, 423.0, 422.0, 420.0, 418.0, 418.0, 421.0, 421.0, 422.0, 418.0, 417.0, 419.0, 420.0, 420.0, 422.0, 421.0, 422.0, 420.0, 420.0, 420.0, 418.0, 419.0, 419.0, 420.0, 419.0, 419.0, 418.0, 419.0, 421.0, 421.0, 420.0, 419.0, 420.0],
      "WindowWidth": [890.0, 886.0, 887.0, 886.0, 889.0, 887.0, 888.0, 886.0, 888.0, 883.0, 884.0, 885.0, 886.0, 888.0, 889.0, 888.0, 886.0, 889.0, 891.0, 890.0, 887.0, 889.0, 888.0, 889.0, 889.0, 889.0, 888.0, 887.0, 887.0, 887.0, 888.0, 887.0, 888.0, 890.0, 890.0, 889.0, 888.0, 890.0, 892.0, 893.0, 892.0, 890.0, 891.0, 893.0, 891.0, 888.0, 893.0, 890.0, 889.0, 887.0, 889.0, 888.0, 890.0, 889.0, 889.0, 890.0, 887.0, 886.0, 885.0, 886.0, 885.0, 886.0, 889.0, 887.0, 887.0, 886.0, 889.0, 887.0, 886.0, 885.0, 885.0, 886.0, 887.0, 889.0, 887.0, 888.0, 888.0, 888.0, 890.0, 890.0, 886.0, 888.0, 888.0, 886.0, 886.0, 888.0, 888.0, 889.0, 886.0, 884.0, 886.0, 885.0, 888.0, 885.0, 887.0, 885.0, 887.0, 888.0, 886.0, 886.0, 885.0, 886.0, 886.0, 885.0, 886.0, 883.0, 884.0, 884.0, 891.0, 891.0, 889.0, 886.0, 884.0, 888.0, 886.0, 881.0, 883.0, 882.0, 884.0, 886.0, 885.0, 883.0, 885.0, 888.0, 887.0, 886.0, 887.0, 887.0, 887.0, 887.0, 888.0, 887.0, 888.0, 889.0, 889.0, 889.0, 893.0, 891.0, 888.0, 887.0, 887.0, 887.0, 889.0, 889.0, 888.0, 891.0, 886.0, 884.0, 884.0, 885.0, 885.0, 885.0, 886.0, 886.0, 885.0, 886.0, 888.0, 890.0, 889.0, 889.0, 888.0, 886.0, 887.0, 889.0, 888.0, 888.0, 888.0, 889.0, 887.0, 885.0, 885.0, 884.0, 886.0, 887.0, 888.0, 888.0, 886.0, 885.0, 885.0, 884.0, 885.0, 887.0, 888.0, 888.0, 887.0, 886.0, 889.0, 889.0, 885.0, 886.0, 884.0, 885.0, 888.0, 888.0, 889.0, 889.0, 889.0, 888.0, 892.0, 890.0, 888.0, 886.0, 883.0, 885.0, 885.0, 885.0, 882.0, 885.0, 885.0, 886.0, 885.0, 882.0, 881.0, 883.0, 884.0, 884.0, 884.0, 884.0, 884.0, 886.0, 886.0, 886.0, 886.0, 890.0, 892.0, 890.0, 886.0, 883.0, 883.0, 888.0, 889.0, 889.0, 883.0, 882.0, 885.0, 886.0, 887.0, 889.0, 888.0, 889.0, 886.0, 885.0, 885.0, 883.0, 885.0, 884.0, 885.0, 884.0, 884.0, 883.0, 885.0, 889.0, 888.0, 886.0, 885.0, 886.0]
    },
    "slices": {}
  }
}