{
  "AcquisitionMatrixPE": 64,
  "AcquisitionNumber": 1,
  "AcquisitionTime": "12:18:51.730000",
  "BandwidthPerPixelPhaseEncode": 40.064,
  "BaseResolution": 64,
  "BodyPartExamined": "BRAIN",
  "ConsistencyInfo": "N4_VD13D_LATEST_20130810",
  "ConversionSoftware": "dcm2niix",
  "ConversionSoftwareVersion": "v1.0.20191031",
  "DerivedVendorReportedEchoSpacing": 0.000780002,
  "DeviceSerialNumber": "67007",
  "DwellTime": 5.3e-06,
  "EchoTime": 0.03,
  "EchoTrainLength": 31,
  "EffectiveEchoSpacing": 0.000390001,
  "FlipAngle": 75,
  "ImageOrientationPatientDICOM": [0.999163, 0.0403891, -0.00647688, -0.0401305, 0.998545, 0.0360291],
  "ImageType": [
    "ORIGINAL",
    "PRIMARY",
    "M",
    "ND",
    "NORM",
    "MOSAIC"
],
  "ImagingFrequency": 123.211,
  "InPlanePhaseEncodingDirectionDICOM": "ROW",
  "InstitutionAddress": "Perth_Drive_100_London_Ontario_CA_N6A_5K8",
  "InstitutionName": "Robarts-CFMM",
  "InstitutionalDepartmentName": "CFMM",
  "MRAcquisitionType": "2D",
  "MagneticFieldStrength": 3,
  "Manufacturer": "Siemens",
  "ManufacturersModelName": "Prisma_fit",
  "Modality": "MR",
  "ParallelReductionFactorInPlane": 2,
  "PartialFourier": 1,
  "PatientPosition": "HFS",
  "PercentPhaseFOV": 100,
  "PhaseEncodingDirection": "i",
  "PhaseEncodingSteps": 63,
  "PhaseResolution": 1,
  "PixelBandwidth": 1475,
  "ProcedureStepDescription": "Owen_Naci",
  "ProtocolName": "Resting_State",
  "PulseSequenceDetails": "%SiemensSeq%_ep2d_bold",
  "ReceiveCoilActiveElements": "HEA;HEP",
  "ReceiveCoilName": "Head_32",
  "ReconMatrixPE": 64,
  "RefLinesPE": 24,
  "RepetitionTime": 2,
  "SAR": 0.121412,
  "ScanOptions": "FS",
  "ScanningSequence": "EP",
  "SequenceName": "_epfid2d1_64",
  "SequenceVariant": "SK",
  "SeriesDescription": "Resting_State",
  "SeriesNumber": 5,
  "ShimSetting": [5234, -6081, -3885, 371, -4, 186, 75, -1],
  "SliceThickness": 3,
  "SliceTiming": [1.9175, 1.8575, 1.7975, 1.7375, 1.6775, 1.6175, 1.5575, 1.4975, 1.4375, 1.3775, 1.3175, 1.2575, 1.1975, 1.1375, 1.0775, 1.02, 0.96, 0.9, 0.84, 0.78, 0.72, 0.66, 0.6, 0.54, 0.48, 0.42, 0.36, 0.3, 0.24, 0.18, 0.12, 0.06, 0],
  "SoftwareVersions": "syngo_MR_D13D",
  "SpacingBetweenSlices": 3.75,
  "StationName": "AWP67007",
  "TaskName": "rest",
  "TotalReadoutTime": 0.0245701,
  "TxRefAmp": 268.999,
  "dcmmeta_affine": [
    [-2.9974892139434814, -0.1203915998339653, -0.02970988303422928, 101.68151092529297],
    [-0.12116724252700806, 2.995634078979492, 0.1340213268995285, -70.62848663330078],
    [-0.01943063735961914, -0.10808729380369186, 3.7474865913391113, -21.562219619750977],
    [0.0, 0.0, 0.0, 1.0]
],
  "dcmmeta_reorient_transform": [
    [0.0, -1.0, 0.0, 63.0],
    [1.0, 0.0, 0.0, 0.0],
    [0.0, 0.0, 1.0, 0.0],
    [0.0, 0.0, 0.0, 1.0]
],
  "dcmmeta_shape": [64, 64, 33, 144],
  "dcmmeta_slice_dim": 2,
  "dcmmeta_version": 0.6,
  "global": {
    "const": {
      "AcquisitionMatrix": [0, 64, 64, 0],
      "AngioFlag": "N",
      "BitsAllocated": 16,
      "BitsStored": 12,
      "BodyPartExamined": "BRAIN",
      "Columns": 384,
      "EchoNumbers": 1,
      "EchoTime": 30.0,
      "EchoTrainLength": 31,
      "FlipAngle": 75.0,
      "HighBit": 11,
      "ImageOrientationPatient": [0.99916303583197, 0.04038908097244, -0.0064768792826, -0.0401305329621, 0.99854466323311, 0.03602909730837],
      "ImagePositionPatient": [-554.43244362836, -616.7846509019, -42.556783698562],
      "ImageType": [
        "ORIGINAL",
        "PRIMARY",
        "M",
        "ND",
        "NORM",
        "MOSAIC"
],
      "ImagedNucleus": "1H",
      "ImagingFrequency": 123.211113,
      "InPlanePhaseEncodingDirection": "ROW",
      "MRAcquisitionType": "2D",
      "MagneticFieldStrength": 3.0,
      "Manufacturer": "SIEMENS",
      "ManufacturerModelName": "Prisma_fit",
      "Modality": "MR",
      "NumberOfAverages": 1.0,
      "NumberOfPhaseEncodingSteps": 63,
      "PercentPhaseFieldOfView": 100.0,
      "PercentSampling": 100.0,
      "PerformedProcedureStepStartTime": "120140.640000",
      "PhotometricInterpretation": "MONOCHROME2",
      "PixelBandwidth": 1475.0,
      "PixelRepresentation": 0,
      "PixelSpacing": [3.0, 3.0],
      "ProtocolName": "Resting State",
      "RepetitionTime": 2000.0,
      "Rows": 384,
      "SAR": 0.12141194966242,
      "SamplesPerPixel": 1,
      "ScanOptions": "FS",
      "ScanningSequence": "EP",
      "SequenceName": "*epfid2d1_64",
      "SequenceVariant": "SK",
      "SeriesDescription": "Resting State",
      "SeriesNumber": 5,
      "SeriesTime": "121943.980000",
      "SliceLocation": -24.877546230105,
      "SliceThickness": 3.0,
      "SmallestImagePixelValue": 0,
      "SoftwareVersions": "syngo MR D13D",
      "SpacingBetweenSlices": 3.7500000199299,
      "SpecificCharacterSet": "ISO_IR 100",
      "StudyID": "1",
      "StudyTime": "120140.594000",
      "TimeOfLastCalibration": ["123723.000000", "123723.000000"],
      "TransmitCoilName": "Body",
      "VariableFlipAngleFlag": "N",
      "WindowCenterWidthExplanation": "Algo1",
      "dBdt": 0.0},
    "slices": {}
  },
  "time": {
    "samples": {
      "AcquisitionNumber": [1, 4, 5, 6, 7, 8, 9, 14, 17, 18, 20, 22, 23, 26, 28, 29, 30, 32, 34, 35, 36, 39, 40, 41, 42, 43, 44, 45, 48, 49, 50, 51, 54, 55, 57, 58, 61, 63, 66, 67, 70, 71, 75, 76, 77, 79, 80, 81, 84, 85, 91, 92, 95, 97, 98, 99, 102, 103, 104, 106, 107, 109, 111, 115, 117, 118, 121, 122, 123, 124, 126, 127, 128, 130, 131, 132, 135, 137, 138, 139, 140, 141, 145, 146, 147, 149, 150, 154, 155, 157, 159, 163, 164, 165, 166, 167, 168, 170, 171, 172, 174, 176, 177, 180, 184, 186, 188, 190, 192, 193, 194, 195, 196, 200, 202, 203, 205, 206, 207, 209, 210, 213, 214, 216, 217, 220, 224, 227, 228, 229, 231, 234, 237, 238, 240, 241, 242, 246, 247, 248, 250, 251, 255, 256],
      "AcquisitionTime": ["121851.730000", "121857.730000", "121859.730000", "121901.730000", "121903.730000", "121905.730000", "121907.730000", "121917.730000", "121923.732500", "121925.732500", "121929.732500", "121933.732500", "121935.732500", "121941.732500", "121945.732500", "121947.732500", "121949.732500", "121953.732500", "121957.732500", "121959.732500", "122001.732500", "122007.732500", "122009.732500", "122011.732500", "122013.732500", "122015.732500", "122017.732500", "122019.732500", "122025.732500", "122027.732500", "122029.732500", "122031.732500", "122037.732500", "122039.732500", "122043.732500", "122045.732500", "122051.732500", "122055.732500", "122101.732500", "122103.732500", "122109.732500", "122111.732500", "122119.732500", "122121.732500", "122123.732500", "122127.732500", "122129.732500", "122131.732500", "122137.732500", "122139.732500", "122151.732500", "122153.732500", "122159.732500", "122203.732500", "122205.732500", "122207.732500", "122213.732500", "122215.732500", "122217.732500", "122221.732500", "122223.732500", "122227.732500", "122231.732500", "122239.732500", "122243.732500", "122245.732500", "122251.732500", "122253.732500", "122255.732500", "122257.732500", "122301.732500", "122303.732500", "122305.732500", "122309.732500", "122311.732500", "122313.732500", "122319.732500", "122323.732500", "122325.732500", "122327.732500", "122329.732500", "122331.732500", "122339.732500", "122341.732500", "122343.732500", "122347.732500", "122349.732500", "122357.732500", "122359.732500", "122403.732500", "122407.732500", "122415.732500", "122417.732500", "122419.732500", "122421.732500", "122423.732500", "122425.732500", "122429.732500", "122431.732500", "122433.732500", "122437.732500", "122441.732500", "122443.732500", "122449.732500", "122457.732500", "122501.732500", "122505.732500", "122509.732500", "122513.732500", "122515.732500", "122517.732500", "122519.732500", "122521.732500", "122529.732500", "122533.732500", "122535.732500", "122539.732500", "122541.732500", "122543.732500", "122547.732500", "122549.732500", "122555.732500", "122557.732500", "122601.732500", "122603.732500", "122609.732500", "122617.732500", "122623.732500", "122625.732500", "122627.732500", "122631.732500", "122637.732500", "122643.732500", "122645.732500", "122649.732500", "122651.732500", "122653.732500", "122701.732500", "122703.732500", "122705.732500", "122709.732500", "122711.732500", "122719.732500", "122721.732500"],
      "ContentTime": ["121943.984000", "121943.993000", "121943.996000", "121944.000000", "121944.003000", "121944.005000", "121944.008000", "121944.022000", "121944.031000", "121944.034000", "121944.039000", "121944.045000", "121944.048000", "122023.978000", "122023.984000", "122023.987000", "122023.990000", "122023.995000", "122024.002000", "122024.005000", "122024.008000", "122024.016000", "122024.019000", "122024.022000", "122024.025000", "122024.028000", "122024.031000", "122024.034000", "122103.984000", "122103.987000", "122103.990000", "122103.993000", "122104.001000", "122104.004000", "122104.010000", "122104.013000", "122104.021000", "122104.027000", "122143.978000", "122143.981000", "122143.990000", "122143.993000", "122144.005000", "122144.008000", "122144.011000", "122144.017000", "122144.020000", "122144.022000", "122144.031000", "122144.033000", "122223.993000", "122223.996000", "122224.006000", "122224.012000", "122224.015000", "122224.017000", "122224.026000", "122224.029000", "122224.032000", "122303.979000", "122303.982000", "122303.987000", "122303.993000", "122304.005000", "122304.010000", "122304.013000", "122304.022000", "122304.025000", "122304.028000", "122304.030000", "122323.978000", "122323.981000", "122323.984000", "122323.990000", "122323.992000", "122323.995000", "122324.005000", "122403.981000", "122403.984000", "122403.987000", "122403.990000", "122403.993000", "122404.006000", "122404.008000", "122404.011000", "122404.017000", "122404.019000", "122404.031000", "122404.034000", "122443.982000", "122443.987000", "122443.998000", "122444.002000", "122444.005000", "122444.008000", "122444.011000", "122444.020000", "122444.025000", "122444.028000", "122444.031000", "122444.037000", "122523.979000", "122523.982000", "122523.991000", "122524.004000", "122524.009000", "122524.015000", "122524.021000", "122524.026000", "122524.029000", "122524.032000", "122524.035000", "122603.978000", "122603.990000", "122603.996000", "122604.000000", "122604.005000", "122604.020000", "122604.023000", "122604.028000", "122604.031000", "122604.040000", "122604.043000", "122643.977000", "122643.980000", "122643.989000", "122644.001000", "122644.010000", "122644.013000", "122644.016000", "122644.022000", "122644.030000", "122723.981000", "122723.984000", "122723.990000", "122723.993000", "122723.995000", "122724.008000", "122724.010000", "122724.013000", "122724.019000", "122724.022000", "122724.033000", "122725.325000"],
      "InstanceCreationTime": ["121943.984000", "121943.993000", "121943.996000", "121944.000000", "121944.003000", "121944.005000", "121944.008000", "121944.022000", "121944.031000", "121944.034000", "121944.039000", "121944.045000", "121944.048000", "122023.978000", "122023.984000", "122023.987000", "122023.990000", "122023.995000", "122024.002000", "122024.005000", "122024.008000", "122024.016000", "122024.019000", "122024.022000", "122024.025000", "122024.028000", "122024.031000", "122024.034000", "122103.984000", "122103.987000", "122103.990000", "122103.993000", "122104.001000", "122104.004000", "122104.010000", "122104.013000", "122104.021000", "122104.027000", "122143.978000", "122143.981000", "122143.990000", "122143.993000", "122144.005000", "122144.008000", "122144.011000", "122144.017000", "122144.020000", "122144.022000", "122144.031000", "122144.033000", "122223.993000", "122223.996000", "122224.006000", "122224.012000", "122224.015000", "122224.017000", "122224.026000", "122224.029000", "122224.032000", "122303.979000", "122303.982000", "122303.987000", "122303.993000", "122304.005000", "122304.010000", "122304.013000", "122304.022000", "122304.025000", "122304.028000", "122304.030000", "122323.978000", "122323.981000", "122323.984000", "122323.990000", "122323.992000", "122323.995000", "122324.005000", "122403.981000", "122403.984000", "122403.987000", "122403.990000", "122403.993000", "122404.006000", "122404.008000", "122404.011000", "122404.017000", "122404.019000", "122404.031000", "122404.034000", "122443.982000", "122443.987000", "122443.998000", "122444.002000", "122444.005000", "122444.008000", "122444.011000", "122444.020000", "122444.025000", "122444.028000", "122444.031000", "122444.037000", "122523.979000", "122523.982000", "122523.991000", "122524.004000", "122524.009000", "122524.015000", "122524.021000", "122524.026000", "122524.029000", "122524.032000", "122524.035000", "122603.978000", "122603.990000", "122603.996000", "122604.000000", "122604.005000", "122604.020000", "122604.023000", "122604.028000", "122604.031000", "122604.040000", "122604.043000", "122643.977000", "122643.980000", "122643.989000", "122644.001000", "122644.010000", "122644.013000", "122644.016000", "122644.022000", "122644.030000", "122723.981000", "122723.984000", "122723.990000", "122723.993000", "122723.995000", "122724.008000", "122724.010000", "122724.013000", "122724.019000", "122724.022000", "122724.033000", "122725.325000"],
      "InstanceNumber": [1, 4, 5, 6, 7, 8, 9, 14, 17, 18, 20, 22, 23, 26, 28, 29, 30, 32, 34, 35, 36, 39, 40, 41, 42, 43, 44, 45, 48, 49, 50, 51, 54, 55, 57, 58, 61, 63, 66, 67, 70, 71, 75, 76, 77, 79, 80, 81, 84, 85, 91, 92, 95, 97, 98, 99, 102, 103, 104, 106, 107, 109, 111, 115, 117, 118, 121, 122, 123, 124, 126, 127, 128, 130, 131, 132, 135, 137, 138, 139, 140, 141, 145, 146, 147, 149, 150, 154, 155, 157, 159, 163, 164, 165, 166, 167, 168, 170, 171, 172, 174, 176, 177, 180, 184, 186, 188, 190, 192, 193, 194, 195, 196, 200, 202, 203, 205, 206, 207, 209, 210, 213, 214, 216, 217, 220, 224, 227, 228, 229, 231, 234, 237, 238, 240, 241, 242, 246, 247, 248, 250, 251, 255, 256],
      "LargestImagePixelValue": [975, 892, 831, 843, 822, 769, 855, 944, 776, 800, 782, 799, 1002, 799, 919, 773, 806, 858, 886, 812, 936, 778, 808, 1041, 820, 905, 880, 818, 852, 830, 871, 830, 876, 760, 770, 932, 735, 837, 773, 850, 796, 806, 869, 882, 876, 820, 817, 894, 793, 837, 799, 873, 830, 789, 772, 761, 874, 931, 780, 804, 889, 836, 847, 865, 938, 806, 880, 826, 903, 943, 894, 860, 925, 1026, 764, 1026, 796, 770, 835, 867, 892, 923, 759, 1017, 778, 800, 826, 800, 847, 845, 1152, 795, 932, 772, 938, 841, 912, 762, 857, 801, 851, 932, 975, 807, 826, 837, 933, 839, 1072, 799, 845, 898, 833, 904, 846, 794, 921, 843, 738, 802, 1106, 916, 829, 908, 770, 741, 908, 989, 813, 1039, 861, 885, 785, 894, 790, 775, 771, 786, 745, 839, 785, 763, 743, 772],
      "WindowCenter": [423.0, 420.0, 419.0, 419.0, 420.0, 420.0, 421.0, 421.0, 420.0, 420.0, 421.0, 420.0, 422.0, 421.0, 421.0, 421.0, 422.0, 423.0, 424.0, 423.0, 423.0, 421.0, 423.0, 425.0, 421.0, 421.0, 420.0, 419.0, 422.0, 421.0, 421.0, 421.0, 420.0, 420.0, 420.0, 422.0, 421.0, 421.0, 421.0, 421.0, 421.0, 421.0, 422.0, 422.0, 421.0, 419.0, 421.0, 422.0, 421.0, 422.0, 421.0, 422.0, 423.0, 422.0, 423.0, 423.0, 422.0, 423.0, 423.0, 420.0, 420.0, 422.0, 422.0, 421.0, 422.0, 421.0, 422.0, 422.0, 422.0, 421.0, 421.0, 421.0, 421.0, 424.0, 421.0, 423.0, 421.0, 422.0, 423.0, 422.0, 422.0, 422.0, 421.0, 423.0, 421.0, 420.0, 421.0, 421.0, 422.0, 425.0, 424.0, 421.0, 422.0, 422.0, 423.0, 421.0, 421.0, 421.0, 421.0, 421.0, 424.0, 422.0, 421.0, 423.0, 421.0, 423.0, 422.0, 421.0, 423.0, 420.0, 420.0, 420.0, 421.0, 421.0, 422.0, 422.0, 423.0, 421.0, 421.0, 424.0, 425.0, 420.0, 420.0, 422.0, 420.0, 419.0, 422.0, 423.0, 421.0, 422.0, 422.0, 421.0, 420.0, 421.0, 421.0, 420.0, 420.0, 420.0, 420.0, 421.0, 420.0, 419.0, 421.0, 422.0],
      "WindowWidth": [893.0, 887.0, 885.0, 885.0, 886.0, 887.0, 889.0, 888.0, 887.0, 887.0, 888.0, 887.0, 889.0, 888.0, 888.0, 888.0, 890.0, 892.0, 893.0, 891.0, 891.0, 889.0, 892.0, 894.0, 889.0, 887.0, 886.0, 886.0, 889.0, 888.0, 887.0, 888.0, 886.0, 886.0, 888.0, 890.0, 888.0, 888.0, 887.0, 888.0, 888.0, 889.0, 889.0, 889.0, 889.0, 886.0, 888.0, 889.0, 888.0, 890.0, 887.0, 889.0, 892.0, 890.0, 892.0, 893.0, 889.0, 891.0, 891.0, 887.0, 886.0, 889.0, 889.0, 888.0, 890.0, 889.0, 891.0, 890.0, 890.0, 889.0, 888.0, 888.0, 888.0, 893.0, 889.0, 890.0, 888.0, 890.0, 891.0, 891.0, 889.0, 890.0, 888.0, 892.0, 889.0, 887.0, 888.0, 889.0, 891.0, 896.0, 892.0, 888.0, 890.0, 890.0, 891.0, 888.0, 888.0, 888.0, 888.0, 888.0, 893.0, 890.0, 888.0, 892.0, 889.0, 891.0, 889.0, 889.0, 891.0, 887.0, 887.0, 887.0, 889.0, 888.0, 889.0, 890.0, 891.0, 889.0, 888.0, 894.0, 895.0, 886.0, 886.0, 889.0, 886.0, 885.0, 889.0, 891.0, 888.0, 889.0, 890.0, 889.0, 886.0, 888.0, 887.0, 887.0, 887.0, 887.0, 887.0, 887.0, 886.0, 885.0, 888.0, 890.0]
    },
    "slices": {}
  }
}