{
  "AcquisitionMatrixPE": 64,
  "AcquisitionNumber": 1,
  "AcquisitionTime": "18:39:27.157500",
  "BandwidthPerPixelPhaseEncode": 40.064,
  "BaseResolution": 64,
  "BodyPartExamined": "BRAIN",
  "ConsistencyInfo": "N4_VD13D_LATEST_20130810",
  "ConversionSoftware": "dcm2niix",
  "ConversionSoftwareVersion": "v1.0.20191031",
  "DerivedVendorReportedEchoSpacing": 0.000780002,
  "DeviceSerialNumber": "67007",
  "DwellTime": 5.3e-06,
  "EchoTime": 0.03,
  "EchoTrainLength": 31,
  "EffectiveEchoSpacing": 0.000390001,
  "FlipAngle": 75,
  "ImageOrientationPatientDICOM": [0.999504, -0.0265632, 0.0169154, 0.0279187, 0.995929, -0.0857042],
  "ImageType": [
    "ORIGINAL",
    "PRIMARY",
    "M",
    "ND",
    "NORM",
    "MOSAIC"
],
  "ImagingFrequency": 123.211,
  "InPlanePhaseEncodingDirectionDICOM": "ROW",
  "InstitutionAddress": "Perth_Drive_100_London_Ontario_CA_N6A_5K8",
  "InstitutionName": "Robarts-CFMM",
  "InstitutionalDepartmentName": "CFMM",
  "MRAcquisitionType": "2D",
  "MagneticFieldStrength": 3,
  "Manufacturer": "Siemens",
  "ManufacturersModelName": "Prisma_fit",
  "Modality": "MR",
  "ParallelReductionFactorInPlane": 2,
  "PartialFourier": 1,
  "PatientPosition": "HFS",
  "PercentPhaseFOV": 100,
  "PhaseEncodingDirection": "i",
  "PhaseEncodingSteps": 63,
  "PhaseResolution": 1,
  "PixelBandwidth": 1475,
  "ProcedureStepDescription": "Owen_Naci",
  "ProtocolName": "Taken_DEEP",
  "PulseSequenceDetails": "%SiemensSeq%_ep2d_bold",
  "ReceiveCoilActiveElements": "HEA;HEP",
  "ReceiveCoilName": "Head_32",
  "ReconMatrixPE": 64,
  "RefLinesPE": 24,
  "RepetitionTime": 2,
  "SAR": 0.0924669,
  "ScanOptions": "FS",
  "ScanningSequence": "EP",
  "SequenceName": "_epfid2d1_64",
  "SequenceVariant": "SK",
  "SeriesDescription": "Taken_DEEP",
  "SeriesNumber": 15,
  "ShimSetting": [5257, -6190, -3785, 426, 25, 9, -8, 42],
  "SliceThickness": 3,
  "SliceTiming": [1.92, 1.86, 1.8, 1.74, 1.68, 1.62, 1.56, 1.5, 1.44, 1.38, 1.32, 1.26, 1.2, 1.14, 1.08, 1.02, 0.96, 0.9, 0.84, 0.78, 0.72, 0.66, 0.6, 0.54, 0.48, 0.42, 0.36, 0.3, 0.24, 0.18, 0.12, 0.06, 0],
  "SoftwareVersions": "syngo_MR_D13D",
  "SpacingBetweenSlices": 3.75,
  "StationName": "AWP67007",
  "TaskName": "audio",
  "TotalReadoutTime": 0.0245701,
  "TxRefAmp": 266.848,
  "dcmmeta_affine": [
    [-2.998512029647827, 0.08375602215528488, 0.05463742837309837, 93.5044937133789],
    [0.07968969643115997, 2.987788200378418, -0.32300230860710144, -77.36299133300781],
    [0.05074625462293625, 0.257112592458725, 3.735663890838623, -27.535425186157227],
    [0.0, 0.0, 0.0, 1.0]
],
  "dcmmeta_reorient_transform": [
    [0.0, -1.0, 0.0, 63.0],
    [1.0, 0.0, 0.0, 0.0],
    [0.0, 0.0, 1.0, 0.0],
    [0.0, 0.0, 0.0, 1.0]
],
  "dcmmeta_shape": [64, 64, 33, 155],
  "dcmmeta_slice_dim": 2,
  "dcmmeta_version": 0.6,
  "global": {
    "const": {
      "AcquisitionMatrix": [0, 64, 64, 0],
      "AngioFlag": "N",
      "BitsAllocated": 16,
      "BitsStored": 12,
      "BodyPartExamined": "BRAIN",
      "Columns": 384,
      "EchoNumbers": 1,
      "EchoTime": 30.0,
      "EchoTrainLength": 31,
      "FlipAngle": 75.0,
      "HighBit": 11,
      "ImageOrientationPatient": [0.99950400865347, -0.0265632325626, 0.01691541786268, 0.02791867365027, 0.99592938372995, -0.0857042022593],
      "ImagePositionPatient": [-591.94400748564, -576.16341480641, 21.681286421936],
      "ImageType": [
        "ORIGINAL",
        "PRIMARY",
        "M",
        "ND",
        "NORM",
        "MOSAIC"
],
      "ImagedNucleus": "1H",
      "ImagingFrequency": 123.210982,
      "InPlanePhaseEncodingDirection": "ROW",
      "MRAcquisitionType": "2D",
      "MagneticFieldStrength": 3.0,
      "Manufacturer": "SIEMENS",
      "ManufacturerModelName": "Prisma_fit",
      "Modality": "MR",
      "NumberOfAverages": 1.0,
      "NumberOfPhaseEncodingSteps": 63,
      "PercentPhaseFieldOfView": 100.0,
      "PercentSampling": 100.0,
      "PerformedProcedureStepStartTime": "171722.110000",
      "PhotometricInterpretation": "MONOCHROME2",
      "PixelBandwidth": 1475.0,
      "PixelRepresentation": 0,
      "PixelSpacing": [3.0, 3.0],
      "ProtocolName": "Taken_DEEP",
      "RepetitionTime": 2000.0,
      "Rows": 384,
      "SAR": 0.09246693648445,
      "SamplesPerPixel": 1,
      "ScanOptions": "FS",
      "ScanningSequence": "EP",
      "SequenceName": "*epfid2d1_64",
      "SequenceVariant": "SK",
      "SeriesDescription": "Taken_DEEP",
      "SeriesNumber": 15,
      "SeriesTime": "183947.332000",
      "SliceLocation": -19.404218324505,
      "SliceThickness": 3.0,
      "SmallestImagePixelValue": 0,
      "SoftwareVersions": "syngo MR D13D",
      "SpacingBetweenSlices": 3.7500000025786,
      "SpecificCharacterSet": "ISO_IR 100",
      "StudyID": "1",
      "StudyTime": "171722.004000",
      "TimeOfLastCalibration": ["123723.000000", "123723.000000"],
      "TransmitCoilName": "Body",
      "VariableFlipAngleFlag": "N",
      "WindowCenterWidthExplanation": "Algo1",
      "dBdt": 0.0},
    "slices": {}
  },
  "time": {
    "samples": {
      "AcquisitionNumber": [1, 2, 3, 4, 5, 6, 7, 8, 9, 10, 11, 12, 13, 14, 15, 16, 17, 18, 19, 20, 21, 22, 23, 24, 25, 26, 27, 28, 29, 30, 31, 32, 33, 34, 35, 36, 37, 38, 39, 40, 41, 42, 43, 44, 45, 46, 47, 48, 49, 50, 51, 52, 53, 54, 55, 56, 57, 58, 59, 60, 61, 62, 63, 64, 65, 66, 67, 68, 69, 70, 71, 72, 73, 74, 75, 76, 77, 78, 79, 80, 81, 82, 83, 84, 85, 86, 87, 88, 89, 90, 91, 92, 93, 94, 95, 96, 97, 98, 99, 100, 101, 102, 103, 104, 105, 106, 107, 108, 109, 110, 111, 112, 113, 114, 115, 116, 117, 118, 119, 120, 121, 122, 123, 124, 125, 126, 127, 128, 129, 130, 131, 132, 133, 134, 135, 136, 137, 138, 139, 140, 141, 142, 143, 144, 145, 146, 147, 148, 149, 150, 151, 152, 153, 154, 155],
      "AcquisitionTime": ["183927.157500", "183929.157500", "183931.157500", "183933.157500", "183935.157500", "183937.157500", "183939.157500", "183941.157500", "183943.157500", "183945.157500", "183947.157500", "183949.157500", "183951.157500", "183953.157500", "183955.157500", "183957.157500", "183959.157500", "184001.157500", "184003.157500", "184005.157500", "184007.157500", "184009.157500", "184011.157500", "184013.157500", "184015.157500", "184017.157500", "184019.157500", "184021.157500", "184023.157500", "184025.157500", "184027.157500", "184029.157500", "184031.157500", "184033.157500", "184035.157500", "184037.157500", "184039.157500", "184041.157500", "184043.157500", "184045.157500", "184047.157500", "184049.157500", "184051.157500", "184053.157500", "184055.157500", "184057.157500", "184059.157500", "184101.157500", "184103.157500", "184105.157500", "184107.157500", "184109.157500", "184111.157500", "184113.157500", "184115.157500", "184117.157500", "184119.157500", "184121.157500", "184123.157500", "184125.157500", "184127.157500", "184129.157500", "184131.157500", "184133.157500", "184135.157500", "184137.157500", "184139.157500", "184141.157500", "184143.157500", "184145.157500", "184147.157500", "184149.157500", "184151.157500", "184153.157500", "184155.157500", "184157.157500", "184159.157500", "184201.157500", "184203.157500", "184205.157500", "184207.157500", "184209.157500", "184211.157500", "184213.157500", "184215.157500", "184217.157500", "184219.157500", "184221.157500", "184223.157500", "184225.157500", "184227.157500", "184229.157500", "184231.157500", "184233.157500", "184235.157500", "184237.157500", "184239.157500", "184241.157500", "184243.157500", "184245.157500", "184247.157500", "184249.157500", "184251.157500", "184253.157500", "184255.157500", "184257.157500", "184259.157500", "184301.157500", "184303.157500", "184305.157500", "184307.157500", "184309.157500", "184311.157500", "184313.157500", "184315.157500", "184317.157500", "184319.157500", "184321.157500", "184323.157500", "184325.157500", "184327.157500", "184329.157500", "184331.157500", "184333.157500", "184335.157500", "184337.157500", "184339.157500", "184341.157500", "184343.157500", "184345.157500", "184347.157500", "184349.157500", "184351.157500", "184353.157500", "184355.157500", "184357.157500", "184359.157500", "184401.157500", "184403.157500", "184405.157500", "184407.157500", "184409.157500", "184411.157500", "184413.157500", "184415.157500", "184417.157500", "184419.157500", "184421.157500", "184423.157500", "184425.157500", "184427.157500", "184429.157500", "184431.157500", "184433.157500", "184435.157500"],
      "ContentTime": ["183947.336000", "183947.346000", "183947.349000", "183947.351000", "183947.354000", "183947.357000", "183947.360000", "183947.362000", "183947.365000", "183947.368000", "184027.331000", "184027.334000", "184027.336000", "184027.339000", "184027.342000", "184027.345000", "184027.347000", "184027.350000", "184027.353000", "184027.355000", "184027.358000", "184027.361000", "184027.363000", "184027.366000", "184027.369000", "184027.371000", "184027.377000", "184027.380000", "184027.382000", "184027.385000", "184107.329000", "184107.332000", "184107.335000", "184107.342000", "184107.345000", "184107.348000", "184107.350000", "184107.353000", "184107.356000", "184107.358000", "184107.361000", "184107.364000", "184107.367000", "184107.369000", "184107.372000", "184107.375000", "184107.378000", "184107.380000", "184107.383000", "184107.386000", "184147.329000", "184147.332000", "184147.335000", "184147.338000", "184147.341000", "184147.343000", "184147.346000", "184147.349000", "184147.351000", "184147.354000", "184147.357000", "184147.359000", "184147.362000", "184147.365000", "184147.367000", "184147.370000", "184147.373000", "184147.376000", "184147.378000", "184147.382000", "184227.330000", "184227.333000", "184227.336000", "184227.338000", "184227.341000", "184227.344000", "184227.347000", "184227.349000", "184227.352000", "184227.355000", "184227.357000", "184227.360000", "184227.363000", "184227.366000", "184227.368000", "184227.371000", "184227.374000", "184227.376000", "184227.379000", "184227.382000", "184307.329000", "184307.332000", "184307.335000", "184307.337000", "184307.340000", "184307.343000", "184307.346000", "184307.348000", "184307.351000", "184307.354000", "184307.357000", "184307.359000", "184307.362000", "184307.365000", "184307.368000", "184307.370000", "184307.373000", "184307.376000", "184307.379000", "184307.382000", "184347.330000", "184347.333000", "184347.336000", "184347.339000", "184347.341000", "184347.344000", "184347.347000", "184347.350000", "184347.353000", "184347.355000", "184347.358000", "184347.361000", "184347.364000", "184347.367000", "184347.370000", "184347.373000", "184347.376000", "184347.379000", "184347.381000", "184347.385000", "184427.329000", "184427.332000", "184427.334000", "184427.337000", "184427.340000", "184427.343000", "184427.345000", "184427.348000", "184427.351000", "184427.353000", "184427.356000", "184427.360000", "184427.362000", "184427.365000", "184427.368000", "184427.371000", "184427.373000", "184427.376000", "184427.379000", "184427.382000", "184435.879000", "184435.883000", "184435.886000", "184435.889000", "184435.892000"],
      "InstanceCreationTime": ["183947.336000", "183947.346000", "183947.349000", "183947.351000", "183947.354000", "183947.357000", "183947.360000", "183947.362000", "183947.365000", "183947.368000", "184027.331000", "184027.334000", "184027.336000", "184027.339000", "184027.342000", "184027.345000", "184027.347000", "184027.350000", "184027.353000", "184027.355000", "184027.358000", "184027.361000", "184027.363000", "184027.366000", "184027.369000", "184027.371000", "184027.377000", "184027.380000", "184027.382000", "184027.385000", "184107.329000", "184107.332000", "184107.335000", "184107.342000", "184107.345000", "184107.348000", "184107.350000", "184107.353000", "184107.356000", "184107.358000", "184107.361000", "184107.364000", "184107.367000", "184107.369000", "184107.372000", "184107.375000", "184107.378000", "184107.380000", "184107.383000", "184107.386000", "184147.329000", "184147.332000", "184147.335000", "184147.338000", "184147.341000", "184147.343000", "184147.346000", "184147.349000", "184147.351000", "184147.354000", "184147.357000", "184147.359000", "184147.362000", "184147.365000", "184147.367000", "184147.370000", "184147.373000", "184147.376000", "184147.378000", "184147.382000", "184227.330000", "184227.333000", "184227.336000", "184227.338000", "184227.341000", "184227.344000", "184227.347000", "184227.349000", "184227.352000", "184227.355000", "184227.357000", "184227.360000", "184227.363000", "184227.366000", "184227.368000", "184227.371000", "184227.374000", "184227.376000", "184227.379000", "184227.382000", "184307.329000", "184307.332000", "184307.335000", "184307.337000", "184307.340000", "184307.343000", "184307.346000", "184307.348000", "184307.351000", "184307.354000", "184307.357000", "184307.359000", "184307.362000", "184307.365000", "184307.368000", "184307.370000", "184307.373000", "184307.376000", "184307.379000", "184307.382000", "184347.330000", "184347.333000", "184347.336000", "184347.339000", "184347.341000", "184347.344000", "184347.347000", "184347.350000", "184347.353000", "184347.355000", "184347.358000", "184347.361000", "184347.364000", "184347.367000", "184347.370000", "184347.373000", "184347.376000", "184347.379000", "184347.381000", "184347.385000", "184427.329000", "184427.332000", "184427.334000", "184427.337000", "184427.340000", "184427.343000", "184427.345000", "184427.348000", "184427.351000", "184427.353000", "184427.356000", "184427.360000", "184427.362000", "184427.365000", "184427.368000", "184427.371000", "184427.373000", "184427.376000", "184427.379000", "184427.382000", "184435.879000", "184435.883000", "184435.886000", "184435.889000", "184435.892000"],
      "InstanceNumber": [1, 2, 3, 4, 5, 6, 7, 8, 9, 10, 11, 12, 13, 14, 15, 16, 17, 18, 19, 20, 21, 22, 23, 24, 25, 26, 27, 28, 29, 30, 31, 32, 33, 34, 35, 36, 37, 38, 39, 40, 41, 42, 43, 44, 45, 46, 47, 48, 49, 50, 51, 52, 53, 54, 55, 56, 57, 58, 59, 60, 61, 62, 63, 64, 65, 66, 67, 68, 69, 70, 71, 72, 73, 74, 75, 76, 77, 78, 79, 80, 81, 82, 83, 84, 85, 86, 87, 88, 89, 90, 91, 92, 93, 94, 95, 96, 97, 98, 99, 100, 101, 102, 103, 104, 105, 106, 107, 108, 109, 110, 111, 112, 113, 114, 115, 116, 117, 118, 119, 120, 121, 122, 123, 124, 125, 126, 127, 128, 129, 130, 131, 132, 133, 134, 135, 136, 137, 138, 139, 140, 141, 142, 143, 144, 145, 146, 147, 148, 149, 150, 151, 152, 153, 154, 155],
      "LargestImagePixelValue": [911, 1043, 865, 907, 1047, 958, 830, 877, 834, 897, 921, 792, 846, 819, 864, 805, 814, 852, 845, 934, 828, 931, 818, 759, 1040, 914, 866, 783, 780, 951, 818, 881, 803, 858, 831, 843, 813, 912, 858, 791, 797, 890, 822, 846, 827, 847, 1040, 870, 868, 825, 1026, 1052, 807, 899, 858, 801, 899, 848, 759, 796, 840, 954, 822, 766, 798, 786, 860, 834, 807, 874, 789, 1005, 781, 837, 803, 793, 914, 939, 917, 796, 944, 810, 760, 832, 854, 872, 894, 824, 903, 824, 797, 853, 924, 770, 827, 959, 832, 795, 827, 832, 799, 797, 847, 906, 973, 780, 775, 819, 795, 884, 790, 841, 860, 912, 988, 796, 788, 840, 777, 886, 780, 940, 901, 802, 795, 899, 829, 915, 820, 820, 821, 798, 860, 820, 790, 832, 787, 955, 822, 803, 904, 825, 827, 771, 843, 966, 839, 825, 843, 767, 828, 1000, 858, 840, 784],
      "WindowCenter": [468.0, 467.0, 467.0, 462.0, 463.0, 459.0, 457.0, 458.0, 458.0, 457.0, 455.0, 454.0, 457.0, 457.0, 458.0, 457.0, 457.0, 456.0, 456.0, 456.0, 455.0, 466.0, 460.0, 456.0, 459.0, 456.0, 453.0, 452.0, 454.0, 458.0, 455.0, 454.0, 453.0, 454.0, 453.0, 454.0, 455.0, 456.0, 456.0, 457.0, 456.0, 461.0, 463.0, 460.0, 460.0, 456.0, 455.0, 452.0, 455.0, 456.0, 456.0, 457.0, 452.0, 452.0, 451.0, 454.0, 458.0, 462.0, 455.0, 455.0, 455.0, 456.0, 453.0, 452.0, 453.0, 453.0, 452.0, 451.0, 450.0, 452.0, 452.0, 454.0, 451.0, 454.0, 456.0, 456.0, 454.0, 456.0, 457.0, 454.0, 453.0, 453.0, 451.0, 451.0, 449.0, 448.0, 449.0, 450.0, 455.0, 455.0, 454.0, 453.0, 452.0, 451.0, 452.0, 454.0, 453.0, 453.0, 453.0, 453.0, 454.0, 455.0, 456.0, 457.0, 457.0, 455.0, 456.0, 457.0, 458.0, 464.0, 456.0, 456.0, 455.0, 454.0, 454.0, 452.0, 453.0, 452.0, 453.0, 454.0, 453.0, 454.0, 452.0, 452.0, 452.0, 452.0, 450.0, 450.0, 449.0, 449.0, 451.0, 452.0, 453.0, 453.0, 453.0, 453.0, 454.0, 456.0, 455.0, 455.0, 455.0, 457.0, 458.0, 455.0, 455.0, 454.0, 451.0, 452.0, 453.0, 452.0, 453.0, 454.0, 453.0, 453.0, 454.0],
      "WindowWidth": [978.0, 975.0, 975.0, 966.0, 967.0, 958.0, 957.0, 957.0, 957.0, 956.0, 951.0, 950.0, 955.0, 956.0, 958.0, 955.0, 955.0, 954.0, 953.0, 954.0, 952.0, 974.0, 963.0, 954.0, 958.0, 954.0, 948.0, 946.0, 950.0, 957.0, 951.0, 951.0, 949.0, 949.0, 948.0, 949.0, 952.0, 953.0, 955.0, 956.0, 954.0, 963.0, 968.0, 962.0, 961.0, 956.0, 952.0, 946.0, 954.0, 954.0, 954.0, 954.0, 947.0, 946.0, 945.0, 950.0, 958.0, 967.0, 954.0, 953.0, 952.0, 953.0, 949.0, 947.0, 950.0, 948.0, 947.0, 945.0, 944.0, 946.0, 947.0, 950.0, 946.0, 951.0, 956.0, 955.0, 951.0, 954.0, 956.0, 952.0, 949.0, 948.0, 944.0, 944.0, 941.0, 939.0, 940.0, 943.0, 952.0, 952.0, 951.0, 947.0, 947.0, 945.0, 947.0, 949.0, 948.0, 949.0, 949.0, 949.0, 951.0, 952.0, 955.0, 955.0, 956.0, 953.0, 955.0, 956.0, 959.0, 969.0, 956.0, 955.0, 951.0, 950.0, 949.0, 947.0, 948.0, 947.0, 948.0, 951.0, 949.0, 950.0, 947.0, 947.0, 946.0, 946.0, 943.0, 943.0, 940.0, 941.0, 945.0, 946.0, 948.0, 948.0, 948.0, 948.0, 950.0, 954.0, 952.0, 952.0, 951.0, 956.0, 958.0, 952.0, 952.0, 949.0, 944.0, 946.0, 947.0, 947.0, 949.0, 951.0, 948.0, 949.0, 950.0]
    },
    "slices": {}
  }
}