{
  "AcquisitionMatrixPE": 64,
  "AcquisitionNumber": 1,
  "AcquisitionTime": "18:09:28.072500",
  "BandwidthPerPixelPhaseEncode": 40.064,
  "BaseResolution": 64,
  "BodyPartExamined": "BRAIN",
  "ConsistencyInfo": "N4_VD13D_LATEST_20130810",
  "ConversionSoftware": "dcm2niix",
  "ConversionSoftwareVersion": "v1.0.20191031",
  "DerivedVendorReportedEchoSpacing": 0.000780002,
  "DeviceSerialNumber": "67007",
  "DwellTime": 5.3e-06,
  "EchoTime": 0.03,
  "EchoTrainLength": 31,
  "EffectiveEchoSpacing": 0.000390001,
  "FlipAngle": 75,
  "ImageOrientationPatientDICOM": [0.999504, -0.0265632, 0.0169154, 0.0279187, 0.995929, -0.0857042],
  "ImageType": [
    "ORIGINAL",
    "PRIMARY",
    "M",
    "ND",
    "NORM",
    "MOSAIC"
],
  "ImagingFrequency": 123.211,
  "InPlanePhaseEncodingDirectionDICOM": "ROW",
  "InstitutionAddress": "Perth_Drive_100_London_Ontario_CA_N6A_5K8",
  "InstitutionName": "Robarts-CFMM",
  "InstitutionalDepartmentName": "CFMM",
  "MRAcquisitionType": "2D",
  "MagneticFieldStrength": 3,
  "Manufacturer": "Siemens",
  "ManufacturersModelName": "Prisma_fit",
  "Modality": "MR",
  "ParallelReductionFactorInPlane": 2,
  "PartialFourier": 1,
  "PatientPosition": "HFS",
  "PercentPhaseFOV": 100,
  "PhaseEncodingDirection": "i",
  "PhaseEncodingSteps": 63,
  "PhaseResolution": 1,
  "PixelBandwidth": 1475,
  "ProcedureStepDescription": "Owen_Naci",
  "ProtocolName": "Taken_LIGHT",
  "PulseSequenceDetails": "%SiemensSeq%_ep2d_bold",
  "ReceiveCoilActiveElements": "HEA;HEP",
  "ReceiveCoilName": "Head_32",
  "ReconMatrixPE": 64,
  "RefLinesPE": 24,
  "RepetitionTime": 2,
  "SAR": 0.0924669,
  "ScanOptions": "FS",
  "ScanningSequence": "EP",
  "SequenceName": "_epfid2d1_64",
  "SequenceVariant": "SK",
  "SeriesDescription": "Taken_LIGHT",
  "SeriesNumber": 11,
  "ShimSetting": [5257, -6190, -3785, 426, 25, 9, -8, 42],
  "SliceThickness": 3,
  "SliceTiming": [1.92, 1.86, 1.8, 1.74, 1.68, 1.62, 1.56, 1.5, 1.44, 1.38, 1.32, 1.26, 1.2, 1.14, 1.08, 1.02, 0.96, 0.9, 0.84, 0.78, 0.72, 0.66, 0.6, 0.54, 0.48, 0.42, 0.36, 0.3, 0.24, 0.18, 0.12, 0.06, 0],
  "SoftwareVersions": "syngo_MR_D13D",
  "SpacingBetweenSlices": 3.75,
  "StationName": "AWP67007",
  "TaskName": "audio",
  "TotalReadoutTime": 0.0245701,
  "TxRefAmp": 266.848,
  "dcmmeta_affine": [
    [-2.998512029647827, 0.08375602215528488, 0.05463742837309837, 93.5044937133789],
    [0.07968969643115997, 2.987788200378418, -0.32300230860710144, -77.36299133300781],
    [0.05074625462293625, 0.257112592458725, 3.735663890838623, -27.535425186157227],
    [0.0, 0.0, 0.0, 1.0]
],
  "dcmmeta_reorient_transform": [
    [0.0, -1.0, 0.0, 63.0],
    [1.0, 0.0, 0.0, 0.0],
    [0.0, 0.0, 1.0, 0.0],
    [0.0, 0.0, 0.0, 1.0]
],
  "dcmmeta_shape": [64, 64, 33, 155],
  "dcmmeta_slice_dim": 2,
  "dcmmeta_version": 0.6,
  "global": {
    "const": {
      "AcquisitionMatrix": [0, 64, 64, 0],
      "AngioFlag": "N",
      "BitsAllocated": 16,
      "BitsStored": 12,
      "BodyPartExamined": "BRAIN",
      "Columns": 384,
      "EchoNumbers": 1,
      "EchoTime": 30.0,
      "EchoTrainLength": 31,
      "FlipAngle": 75.0,
      "HighBit": 11,
      "ImageOrientationPatient": [0.99950400865347, -0.0265632325626, 0.01691541786268, 0.02791867365027, 0.99592938372995, -0.0857042022593],
      "ImagePositionPatient": [-591.94400748564, -576.16341480641, 21.681286421936],
      "ImageType": [
        "ORIGINAL",
        "PRIMARY",
        "M",
        "ND",
        "NORM",
        "MOSAIC"
],
      "ImagedNucleus": "1H",
      "ImagingFrequency": 123.21098,
      "InPlanePhaseEncodingDirection": "ROW",
      "MRAcquisitionType": "2D",
      "MagneticFieldStrength": 3.0,
      "Manufacturer": "SIEMENS",
      "ManufacturerModelName": "Prisma_fit",
      "Modality": "MR",
      "NumberOfAverages": 1.0,
      "NumberOfPhaseEncodingSteps": 63,
      "PercentPhaseFieldOfView": 100.0,
      "PercentSampling": 100.0,
      "PerformedProcedureStepStartTime": "171722.110000",
      "PhotometricInterpretation": "MONOCHROME2",
      "PixelBandwidth": 1475.0,
      "PixelRepresentation": 0,
      "PixelSpacing": [3.0, 3.0],
      "ProtocolName": "Taken_LIGHT",
      "RepetitionTime": 2000.0,
      "Rows": 384,
      "SAR": 0.09246693648445,
      "SamplesPerPixel": 1,
      "ScanOptions": "FS",
      "ScanningSequence": "EP",
      "SequenceName": "*epfid2d1_64",
      "SequenceVariant": "SK",
      "SeriesDescription": "Taken_LIGHT",
      "SeriesNumber": 11,
      "SeriesTime": "181007.333000",
      "SliceLocation": -19.404218324505,
      "SliceThickness": 3.0,
      "SmallestImagePixelValue": 0,
      "SoftwareVersions": "syngo MR D13D",
      "SpacingBetweenSlices": 3.7500000025786,
      "SpecificCharacterSet": "ISO_IR 100",
      "StudyID": "1",
      "StudyTime": "171722.004000",
      "TimeOfLastCalibration": ["123723.000000", "123723.000000"],
      "TransmitCoilName": "Body",
      "VariableFlipAngleFlag": "N",
      "WindowCenterWidthExplanation": "Algo1",
      "dBdt": 0.0},
    "slices": {}
  },
  "time": {
    "samples": {
      "AcquisitionNumber": [1, 2, 3, 4, 5, 6, 7, 8, 9, 10, 11, 12, 13, 14, 15, 16, 17, 18, 19, 20, 21, 22, 23, 24, 25, 26, 27, 28, 29, 30, 31, 32, 33, 34, 35, 36, 37, 38, 39, 40, 41, 42, 43, 44, 45, 46, 47, 48, 49, 50, 51, 52, 53, 54, 55, 56, 57, 58, 59, 60, 61, 62, 63, 64, 65, 66, 67, 68, 69, 70, 71, 72, 73, 74, 75, 76, 77, 78, 79, 80, 81, 82, 83, 84, 85, 86, 87, 88, 89, 90, 91, 92, 93, 94, 95, 96, 97, 98, 99, 100, 101, 102, 103, 104, 105, 106, 107, 108, 109, 110, 111, 112, 113, 114, 115, 116, 117, 118, 119, 120, 121, 122, 123, 124, 125, 126, 127, 128, 129, 130, 131, 132, 133, 134, 135, 136, 137, 138, 139, 140, 141, 142, 143, 144, 145, 146, 147, 148, 149, 150, 151, 152, 153, 154, 155],
      "AcquisitionTime": ["180928.072500", "180930.072500", "180932.072500", "180934.072500", "180936.072500", "180938.072500", "180940.072500", "180942.072500", "180944.072500", "180946.072500", "180948.072500", "180950.072500", "180952.072500", "180954.072500", "180956.072500", "180958.072500", "181000.072500", "181002.072500", "181004.072500", "181006.072500", "181008.072500", "181010.072500", "181012.072500", "181014.072500", "181016.072500", "181018.072500", "181020.072500", "181022.072500", "181024.072500", "181026.072500", "181028.072500", "181030.072500", "181032.072500", "181034.072500", "181036.072500", "181038.072500", "181040.072500", "181042.072500", "181044.072500", "181046.072500", "181048.072500", "181050.072500", "181052.072500", "181054.072500", "181056.072500", "181058.072500", "181100.072500", "181102.072500", "181104.072500", "181106.072500", "181108.072500", "181110.072500", "181112.072500", "181114.072500", "181116.072500", "181118.072500", "181120.072500", "181122.072500", "181124.072500", "181126.072500", "181128.072500", "181130.072500", "181132.072500", "181134.072500", "181136.072500", "181138.072500", "181140.072500", "181142.072500", "181144.072500", "181146.072500", "181148.072500", "181150.072500", "181152.072500", "181154.072500", "181156.072500", "181158.072500", "181200.072500", "181202.072500", "181204.072500", "181206.072500", "181208.072500", "181210.072500", "181212.072500", "181214.072500", "181216.072500", "181218.072500", "181220.072500", "181222.072500", "181224.072500", "181226.072500", "181228.072500", "181230.072500", "181232.072500", "181234.072500", "181236.072500", "181238.072500", "181240.072500", "181242.072500", "181244.072500", "181246.072500", "181248.072500", "181250.072500", "181252.072500", "181254.072500", "181256.072500", "181258.072500", "181300.072500", "181302.072500", "181304.072500", "181306.072500", "181308.072500", "181310.072500", "181312.072500", "181314.072500", "181316.075000", "181318.075000", "181320.075000", "181322.075000", "181324.075000", "181326.075000", "181328.075000", "181330.075000", "181332.075000", "181334.075000", "181336.075000", "181338.075000", "181340.075000", "181342.075000", "181344.075000", "181346.075000", "181348.075000", "181350.075000", "181352.075000", "181354.075000", "181356.075000", "181358.075000", "181400.075000", "181402.075000", "181404.075000", "181406.075000", "181408.075000", "181410.075000", "181412.075000", "181414.075000", "181416.075000", "181418.075000", "181420.075000", "181422.075000", "181424.075000", "181426.075000", "181428.075000", "181430.075000", "181432.075000", "181434.075000", "181436.075000"],
      "ContentTime": ["181007.337000", "181007.341000", "181007.344000", "181007.346000", "181007.349000", "181007.352000", "181007.354000", "181007.357000", "181007.360000", "181007.363000", "181007.365000", "181007.373000", "181007.378000", "181007.381000", "181007.384000", "181007.387000", "181007.390000", "181007.393000", "181007.396000", "181007.399000", "181047.330000", "181047.333000", "181047.341000", "181047.344000", "181047.346000", "181047.349000", "181047.352000", "181047.355000", "181047.358000", "181047.360000", "181047.363000", "181047.365000", "181047.368000", "181047.371000", "181047.373000", "181047.376000", "181047.379000", "181047.381000", "181047.384000", "181047.387000", "181127.328000", "181127.332000", "181127.334000", "181127.337000", "181127.340000", "181127.342000", "181127.348000", "181127.351000", "181127.354000", "181127.357000", "181127.360000", "181127.363000", "181127.365000", "181127.368000", "181127.371000", "181127.374000", "181127.376000", "181127.379000", "181127.382000", "181127.384000", "181207.331000", "181207.335000", "181207.337000", "181207.340000", "181207.343000", "181207.345000", "181207.348000", "181207.351000", "181207.353000", "181207.356000", "181207.359000", "181207.361000", "181207.364000", "181207.367000", "181207.369000", "181207.372000", "181207.375000", "181207.377000", "181207.380000", "181207.383000", "181247.329000", "181247.332000", "181247.335000", "181247.338000", "181247.340000", "181247.343000", "181247.346000", "181247.349000", "181247.352000", "181247.355000", "181247.357000", "181247.360000", "181247.363000", "181247.366000", "181247.369000", "181247.372000", "181247.375000", "181247.377000", "181247.380000", "181247.392000", "181327.330000", "181327.334000", "181327.337000", "181327.339000", "181327.342000", "181327.345000", "181327.348000", "181327.350000", "181327.353000", "181327.356000", "181327.358000", "181327.361000", "181327.364000", "181327.367000", "181327.369000", "181327.372000", "181327.375000", "181327.377000", "181327.380000", "181327.383000", "181407.330000", "181407.333000", "181407.336000", "181407.338000", "181407.341000", "181407.344000", "181407.347000", "181407.350000", "181407.353000", "181407.355000", "181407.358000", "181407.361000", "181407.364000", "181407.367000", "181407.370000", "181407.373000", "181407.376000", "181407.379000", "181407.382000", "181407.385000", "181436.361000", "181436.364000", "181436.367000", "181436.369000", "181436.372000", "181436.376000", "181436.379000", "181436.383000", "181436.388000", "181436.391000", "181436.395000", "181436.398000", "181436.401000", "181436.404000", "181436.407000"],
      "InstanceCreationTime": ["181007.337000", "181007.341000", "181007.344000", "181007.346000", "181007.349000", "181007.352000", "181007.354000", "181007.357000", "181007.360000", "181007.363000", "181007.365000", "181007.373000", "181007.378000", "181007.381000", "181007.384000", "181007.387000", "181007.390000", "181007.393000", "181007.396000", "181007.399000", "181047.330000", "181047.333000", "181047.341000", "181047.344000", "181047.346000", "181047.349000", "181047.352000", "181047.355000", "181047.358000", "181047.360000", "181047.363000", "181047.365000", "181047.368000", "181047.371000", "181047.373000", "181047.376000", "181047.379000", "181047.381000", "181047.384000", "181047.387000", "181127.328000", "181127.332000", "181127.334000", "181127.337000", "181127.340000", "181127.342000", "181127.348000", "181127.351000", "181127.354000", "181127.357000", "181127.360000", "181127.363000", "181127.365000", "181127.368000", "181127.371000", "181127.374000", "181127.376000", "181127.379000", "181127.382000", "181127.384000", "181207.331000", "181207.335000", "181207.337000", "181207.340000", "181207.343000", "181207.345000", "181207.348000", "181207.351000", "181207.353000", "181207.356000", "181207.359000", "181207.361000", "181207.364000", "181207.367000", "181207.369000", "181207.372000", "181207.375000", "181207.377000", "181207.380000", "181207.383000", "181247.329000", "181247.332000", "181247.335000", "181247.338000", "181247.340000", "181247.343000", "181247.346000", "181247.349000", "181247.352000", "181247.355000", "181247.357000", "181247.360000", "181247.363000", "181247.366000", "181247.369000", "181247.372000", "181247.375000", "181247.377000", "181247.380000", "181247.392000", "181327.330000", "181327.334000", "181327.337000", "181327.339000", "181327.342000", "181327.345000", "181327.348000", "181327.350000", "181327.353000", "181327.356000", "181327.358000", "181327.361000", "181327.364000", "181327.367000", "181327.369000", "181327.372000", "181327.375000", "181327.377000", "181327.380000", "181327.383000", "181407.330000", "181407.333000", "181407.336000", "181407.338000", "181407.341000", "181407.344000", "181407.347000", "181407.350000", "181407.353000", "181407.355000", "181407.358000", "181407.361000", "181407.364000", "181407.367000", "181407.370000", "181407.373000", "181407.376000", "181407.379000", "181407.382000", "181407.385000", "181436.361000", "181436.364000", "181436.367000", "181436.369000", "181436.372000", "181436.376000", "181436.379000", "181436.383000", "181436.388000", "181436.391000", "181436.395000", "181436.398000", "181436.401000", "181436.404000", "181436.407000"],
      "InstanceNumber": [1, 2, 3, 4, 5, 6, 7, 8, 9, 10, 11, 12, 13, 14, 15, 16, 17, 18, 19, 20, 21, 22, 23, 24, 25, 26, 27, 28, 29, 30, 31, 32, 33, 34, 35, 36, 37, 38, 39, 40, 41, 42, 43, 44, 45, 46, 47, 48, 49, 50, 51, 52, 53, 54, 55, 56, 57, 58, 59, 60, 61, 62, 63, 64, 65, 66, 67, 68, 69, 70, 71, 72, 73, 74, 75, 76, 77, 78, 79, 80, 81, 82, 83, 84, 85, 86, 87, 88, 89, 90, 91, 92, 93, 94, 95, 96, 97, 98, 99, 100, 101, 102, 103, 104, 105, 106, 107, 108, 109, 110, 111, 112, 113, 114, 115, 116, 117, 118, 119, 120, 121, 122, 123, 124, 125, 126, 127, 128, 129, 130, 131, 132, 133, 134, 135, 136, 137, 138, 139, 140, 141, 142, 143, 144, 145, 146, 147, 148, 149, 150, 151, 152, 153, 154, 155],
      "LargestImagePixelValue": [878, 928, 861, 852, 822, 852, 855, 923, 856, 840, 889, 959, 869, 869, 883, 909, 867, 948, 848, 835, 861, 923, 871, 925, 938, 922, 849, 839, 881, 877, 830, 886, 912, 853, 850, 874, 890, 884, 870, 879, 898, 891, 848, 858, 853, 853, 869, 887, 961, 865, 863, 851, 836, 832, 860, 884, 875, 876, 860, 879, 866, 829, 817, 826, 845, 814, 889, 877, 887, 863, 914, 902, 903, 863, 864, 877, 845, 902, 873, 837, 960, 816, 963, 871, 867, 863, 868, 936, 868, 901, 872, 882, 879, 911, 931, 881, 923, 906, 911, 901, 836, 826, 824, 815, 835, 855, 869, 856, 949, 831, 877, 849, 841, 945, 884, 892, 884, 865, 839, 810, 855, 868, 916, 913, 851, 875, 867, 892, 866, 896, 842, 881, 843, 821, 867, 832, 893, 863, 856, 868, 864, 817, 847, 856, 821, 826, 844, 836, 856, 825, 870, 814, 848, 833, 847],
      "WindowCenter": [467.0, 467.0, 466.0, 466.0, 465.0, 467.0, 466.0, 467.0, 466.0, 467.0, 465.0, 467.0, 466.0, 466.0, 467.0, 467.0, 467.0, 466.0, 467.0, 466.0, 467.0, 467.0, 467.0, 468.0, 466.0, 467.0, 467.0, 467.0, 467.0, 466.0, 468.0, 467.0, 469.0, 466.0, 467.0, 466.0, 469.0, 467.0, 468.0, 466.0, 466.0, 469.0, 467.0, 469.0, 467.0, 467.0, 467.0, 467.0, 468.0, 467.0, 469.0, 467.0, 469.0, 466.0, 468.0, 467.0, 467.0, 468.0, 467.0, 469.0, 467.0, 467.0, 466.0, 467.0, 467.0, 466.0, 469.0, 467.0, 468.0, 466.0, 466.0, 467.0, 466.0, 467.0, 466.0, 465.0, 466.0, 466.0, 467.0, 466.0, 468.0, 465.0, 466.0, 467.0, 466.0, 468.0, 466.0, 468.0, 466.0, 466.0, 467.0, 466.0, 468.0, 466.0, 468.0, 466.0, 466.0, 465.0, 465.0, 468.0, 466.0, 466.0, 464.0, 465.0, 467.0, 466.0, 468.0, 466.0, 469.0, 466.0, 466.0, 466.0, 466.0, 467.0, 467.0, 468.0, 466.0, 466.0, 465.0, 466.0, 467.0, 466.0, 469.0, 466.0, 467.0, 466.0, 466.0, 467.0, 466.0, 468.0, 466.0, 468.0, 466.0, 467.0, 466.0, 466.0, 468.0, 467.0, 469.0, 467.0, 466.0, 466.0, 465.0, 468.0, 465.0, 467.0, 466.0, 467.0, 466.0, 466.0, 466.0, 466.0, 468.0, 467.0, 465.0],
      "WindowWidth": [976.0, 974.0, 973.0, 972.0, 972.0, 974.0, 972.0, 975.0, 972.0, 974.0, 972.0, 974.0, 974.0, 972.0, 976.0, 974.0, 976.0, 973.0, 974.0, 973.0, 974.0, 976.0, 975.0, 977.0, 973.0, 975.0, 974.0, 974.0, 976.0, 973.0, 977.0, 974.0, 978.0, 974.0, 975.0, 974.0, 978.0, 975.0, 975.0, 974.0, 973.0, 979.0, 975.0, 978.0, 975.0, 974.0, 975.0, 975.0, 976.0, 974.0, 980.0, 975.0, 978.0, 974.0, 978.0, 976.0, 975.0, 977.0, 974.0, 979.0, 975.0, 975.0, 973.0, 975.0, 975.0, 973.0, 979.0, 975.0, 976.0, 973.0, 972.0, 975.0, 973.0, 975.0, 973.0, 971.0, 974.0, 973.0, 976.0, 973.0, 977.0, 972.0, 973.0, 974.0, 973.0, 977.0, 973.0, 976.0, 973.0, 973.0, 975.0, 973.0, 976.0, 972.0, 976.0, 972.0, 972.0, 972.0, 971.0, 978.0, 973.0, 973.0, 970.0, 970.0, 976.0, 973.0, 977.0, 974.0, 978.0, 974.0, 973.0, 973.0, 972.0, 975.0, 974.0, 977.0, 973.0, 972.0, 971.0, 972.0, 975.0, 973.0, 979.0, 974.0, 975.0, 973.0, 972.0, 975.0, 973.0, 978.0, 973.0, 977.0, 973.0, 974.0, 974.0, 973.0, 977.0, 974.0, 978.0, 974.0, 973.0, 974.0, 972.0, 977.0, 972.0, 976.0, 973.0, 975.0, 972.0, 973.0, 973.0, 972.0, 977.0, 975.0, 972.0]
    },
    "slices": {}
  }
}