{
  "AcquisitionMatrixPE": 64,
  "AcquisitionNumber": 1,
  "AcquisitionTime": "18:45:0.170000",
  "BandwidthPerPixelPhaseEncode": 40.064,
  "BaseResolution": 64,
  "BodyPartExamined": "BRAIN",
  "ConsistencyInfo": "N4_VD13D_LATEST_20130810",
  "ConversionSoftware": "dcm2niix",
  "ConversionSoftwareVersion": "v1.0.20191031",
  "DerivedVendorReportedEchoSpacing": 0.000780002,
  "DeviceSerialNumber": "67007",
  "DwellTime": 5.3e-06,
  "EchoTime": 0.03,
  "EchoTrainLength": 31,
  "EffectiveEchoSpacing": 0.000390001,
  "FlipAngle": 75,
  "ImageOrientationPatientDICOM": [0.999504, -0.0265632, 0.0169154, 0.0279187, 0.995929, -0.0857042],
  "ImageType": [
    "ORIGINAL",
    "PRIMARY",
    "M",
    "ND",
    "NORM",
    "MOSAIC"
],
  "ImagingFrequency": 123.211,
  "InPlanePhaseEncodingDirectionDICOM": "ROW",
  "InstitutionAddress": "Perth_Drive_100_London_Ontario_CA_N6A_5K8",
  "InstitutionName": "Robarts-CFMM",
  "InstitutionalDepartmentName": "CFMM",
  "MRAcquisitionType": "2D",
  "MagneticFieldStrength": 3,
  "Manufacturer": "Siemens",
  "ManufacturersModelName": "Prisma_fit",
  "Modality": "MR",
  "ParallelReductionFactorInPlane": 2,
  "PartialFourier": 1,
  "PatientPosition": "HFS",
  "PercentPhaseFOV": 100,
  "PhaseEncodingDirection": "i",
  "PhaseEncodingSteps": 63,
  "PhaseResolution": 1,
  "PixelBandwidth": 1475,
  "ProcedureStepDescription": "Owen_Naci",
  "ProtocolName": "Resting_State_DEEP",
  "PulseSequenceDetails": "%SiemensSeq%_ep2d_bold",
  "ReceiveCoilActiveElements": "HEA;HEP",
  "ReceiveCoilName": "Head_32",
  "ReconMatrixPE": 64,
  "RefLinesPE": 24,
  "RepetitionTime": 2,
  "SAR": 0.0926387,
  "ScanOptions": "FS",
  "ScanningSequence": "EP",
  "SequenceName": "_epfid2d1_64",
  "SequenceVariant": "SK",
  "SeriesDescription": "Resting_State_DEEP",
  "SeriesNumber": 17,
  "ShimSetting": [5257, -6190, -3785, 426, 25, 9, -8, 42],
  "SliceThickness": 3,
  "SliceTiming": [1.92, 1.86, 1.8, 1.74, 1.68, 1.62, 1.56, 1.5, 1.44, 1.38, 1.32, 1.26, 1.2, 1.14, 1.08, 1.02, 0.96, 0.9, 0.84, 0.78, 0.72, 0.66, 0.6, 0.54, 0.48, 0.42, 0.36, 0.3, 0.24, 0.18, 0.12, 0.06, 0],
  "SoftwareVersions": "syngo_MR_D13D",
  "SpacingBetweenSlices": 3.75,
  "StationName": "AWP67007",
  "TaskName": "rest",
  "TotalReadoutTime": 0.0245701,
  "TxRefAmp": 266.848,
  "dcmmeta_affine": [
    [-2.998512029647827, 0.08375602215528488, 0.05463742837309837, 93.5044937133789],
    [0.07968969643115997, 2.987788200378418, -0.32300230860710144, -77.36299133300781],
    [0.05074625462293625, 0.257112592458725, 3.735663890838623, -27.535425186157227],
    [0.0, 0.0, 0.0, 1.0]
],
  "dcmmeta_reorient_transform": [
    [0.0, -1.0, 0.0, 63.0],
    [1.0, 0.0, 0.0, 0.0],
    [0.0, 0.0, 1.0, 0.0],
    [0.0, 0.0, 0.0, 1.0]
],
  "dcmmeta_shape": [64, 64, 33, 133],
  "dcmmeta_slice_dim": 2,
  "dcmmeta_version": 0.6,
  "global": {
    "const": {
      "AcquisitionMatrix": [0, 64, 64, 0],
      "AngioFlag": "N",
      "BitsAllocated": 16,
      "BitsStored": 12,
      "BodyPartExamined": "BRAIN",
      "Columns": 384,
      "EchoNumbers": 1,
      "EchoTime": 30.0,
      "EchoTrainLength": 31,
      "FlipAngle": 75.0,
      "HighBit": 11,
      "ImageOrientationPatient": [0.99950400865347, -0.0265632325626, 0.01691541786268, 0.02791867365027, 0.99592938372995, -0.0857042022593],
      "ImagePositionPatient": [-591.94400748564, -576.16341480641, 21.681286421936],
      "ImageType": [
        "ORIGINAL",
        "PRIMARY",
        "M",
        "ND",
        "NORM",
        "MOSAIC"
],
      "ImagedNucleus": "1H",
      "ImagingFrequency": 123.210982,
      "InPlanePhaseEncodingDirection": "ROW",
      "MRAcquisitionType": "2D",
      "MagneticFieldStrength": 3.0,
      "Manufacturer": "SIEMENS",
      "ManufacturerModelName": "Prisma_fit",
      "Modality": "MR",
      "NumberOfAverages": 1.0,
      "NumberOfPhaseEncodingSteps": 63,
      "PercentPhaseFieldOfView": 100.0,
      "PercentSampling": 100.0,
      "PerformedProcedureStepStartTime": "171722.110000",
      "PhotometricInterpretation": "MONOCHROME2",
      "PixelBandwidth": 1475.0,
      "PixelRepresentation": 0,
      "PixelSpacing": [3.0, 3.0],
      "ProtocolName": "Resting State_DEEP",
      "RepetitionTime": 2000.0,
      "Rows": 384,
      "SAR": 0.09263874636941,
      "SamplesPerPixel": 1,
      "ScanOptions": "FS",
      "ScanningSequence": "EP",
      "SequenceName": "*epfid2d1_64",
      "SequenceVariant": "SK",
      "SeriesDescription": "Resting State_DEEP",
      "SeriesNumber": 17,
      "SeriesTime": "184557.793000",
      "SliceLocation": -19.404218324505,
      "SliceThickness": 3.0,
      "SmallestImagePixelValue": 0,
      "SoftwareVersions": "syngo MR D13D",
      "SpacingBetweenSlices": 3.7500000025786,
      "SpecificCharacterSet": "ISO_IR 100",
      "StudyID": "1",
      "StudyTime": "171722.004000",
      "TimeOfLastCalibration": ["123723.000000", "123723.000000"],
      "TransmitCoilName": "Body",
      "VariableFlipAngleFlag": "N",
      "WindowCenterWidthExplanation": "Algo1",
      "dBdt": 0.0},
    "slices": {}
  },
  "time": {
    "samples": {
      "AcquisitionNumber": [1, 4, 5, 8, 10, 11, 13, 14, 16, 18, 22, 26, 28, 29, 30, 31, 33, 34, 35, 36, 37, 39, 40, 41, 43, 44, 45, 48, 49, 51, 52, 54, 55, 56, 57, 59, 60, 63, 64, 67, 70, 71, 72, 74, 75, 78, 79, 80, 82, 83, 84, 87, 88, 90, 92, 97, 98, 102, 108, 109, 111, 112, 113, 116, 117, 118, 122, 125, 127, 130, 132, 133, 136, 141, 142, 143, 144, 145, 146, 149, 151, 152, 153, 154, 160, 163, 164, 170, 173, 174, 177, 178, 181, 182, 184, 185, 187, 190, 193, 194, 196, 197, 198, 199, 200, 203, 207, 211, 214, 215, 216, 219, 220, 223, 224, 225, 226, 227, 232, 233, 236, 237, 238, 240, 242, 243, 245, 246, 248, 249, 250, 253, 255],
      "AcquisitionTime": ["184500.170000", "184506.170000", "184508.170000", "184514.170000", "184518.170000", "184520.170000", "184524.170000", "184526.170000", "184530.170000", "184534.170000", "184542.170000", "184550.170000", "184554.170000", "184556.170000", "184558.170000", "184600.170000", "184604.170000", "184606.170000", "184608.170000", "184610.170000", "184612.170000", "184616.170000", "184618.170000", "184620.170000", "184624.170000", "184626.170000", "184628.170000", "184634.170000", "184636.170000", "184640.170000", "184642.170000", "184646.170000", "184648.170000", "184650.170000", "184652.170000", "184656.170000", "184658.170000", "184704.170000", "184706.170000", "184712.170000", "184718.170000", "184720.172500", "184722.172500", "184726.172500", "184728.172500", "184734.172500", "184736.172500", "184738.172500", "184742.172500", "184744.172500", "184746.172500", "184752.172500", "184754.172500", "184758.172500", "184802.172500", "184812.172500", "184814.172500", "184822.172500", "184834.172500", "184836.172500", "184840.172500", "184842.172500", "184844.172500", "184850.172500", "184852.172500", "184854.172500", "184902.172500", "184908.172500", "184912.172500", "184918.172500", "184922.172500", "184924.172500", "184930.172500", "184940.172500", "184942.172500", "184944.172500", "184946.172500", "184948.172500", "184950.172500", "184956.172500", "185000.172500", "185002.172500", "185004.172500", "185006.172500", "185018.172500", "185024.172500", "185026.172500", "185038.172500", "185044.172500", "185046.172500", "185052.172500", "185054.172500", "185100.172500", "185102.172500", "185106.172500", "185108.172500", "185112.172500", "185118.172500", "185124.172500", "185126.172500", "185130.172500", "185132.172500", "185134.172500", "185136.172500", "185138.172500", "185144.172500", "185152.172500", "185200.172500", "185206.172500", "185208.172500", "185210.172500", "185216.172500", "185218.172500", "185224.172500", "185226.172500", "185228.172500", "185230.172500", "185232.172500", "185242.172500", "185244.172500", "185250.172500", "185252.172500", "185254.172500", "185258.172500", "185302.172500", "185304.172500", "185308.172500", "185310.172500", "185314.172500", "185316.172500", "185318.172500", "185324.172500", "185328.172500"],
      "ContentTime": ["184557.797000", "184557.806000", "184557.809000", "184557.817000", "184557.823000", "184557.826000", "184557.831000", "184557.834000", "184557.845000", "184557.851000", "184557.863000", "184557.878000", "184557.884000", "184557.886000", "184637.792000", "184637.796000", "184637.801000", "184637.804000", "184637.807000", "184637.810000", "184637.812000", "184637.818000", "184637.820000", "184637.823000", "184637.829000", "184637.831000", "184637.834000", "184637.848000", "184637.851000", "184717.806000", "184717.809000", "184717.815000", "184717.818000", "184717.820000", "184717.823000", "184717.828000", "184717.831000", "184717.839000", "184717.842000", "184717.850000", "184757.793000", "184757.796000", "184757.799000", "184757.805000", "184757.807000", "184757.816000", "184757.819000", "184757.822000", "184757.827000", "184757.830000", "184757.833000", "184757.841000", "184757.844000", "184817.792000", "184817.799000", "184817.813000", "184817.816000", "184857.798000", "184857.815000", "184857.818000", "184857.824000", "184857.827000", "184857.830000", "184857.838000", "184857.842000", "184857.844000", "184937.797000", "184937.805000", "184937.810000", "184937.818000", "184937.825000", "184937.828000", "184937.836000", "185017.795000", "185017.798000", "185017.801000", "185017.803000", "185017.806000", "185017.809000", "185017.838000", "185017.844000", "185017.847000", "185017.849000", "185017.852000", "185057.791000", "185057.800000", "185057.803000", "185057.820000", "185057.828000", "185057.831000", "185057.840000", "185057.843000", "185137.795000", "185137.797000", "185137.803000", "185137.805000", "185137.811000", "185137.819000", "185137.827000", "185137.830000", "185137.835000", "185137.838000", "185137.841000", "185137.844000", "185217.791000", "185217.800000", "185217.811000", "185217.823000", "185217.831000", "185217.834000", "185217.837000", "185217.846000", "185257.791000", "185257.799000", "185257.802000", "185257.805000", "185257.808000", "185257.810000", "185257.825000", "185257.827000", "185257.836000", "185257.839000", "185257.842000", "185330.647000", "185330.655000", "185330.660000", "185330.666000", "185330.669000", "185330.675000", "185330.677000", "185330.680000", "185330.689000", "185330.695000"],
      "InstanceCreationTime": ["184557.797000", "184557.806000", "184557.809000", "184557.817000", "184557.823000", "184557.826000", "184557.831000", "184557.834000", "184557.845000", "184557.851000", "184557.863000", "184557.878000", "184557.884000", "184557.886000", "184637.792000", "184637.796000", "184637.801000", "184637.804000", "184637.807000", "184637.810000", "184637.812000", "184637.818000", "184637.820000", "184637.823000", "184637.829000", "184637.831000", "184637.834000", "184637.848000", "184637.851000", "184717.806000", "184717.809000", "184717.815000", "184717.818000", "184717.820000", "184717.823000", "184717.828000", "184717.831000", "184717.839000", "184717.842000", "184717.850000", "184757.793000", "184757.796000", "184757.799000", "184757.805000", "184757.807000", "184757.816000", "184757.819000", "184757.822000", "184757.827000", "184757.830000", "184757.833000", "184757.841000", "184757.844000", "184817.792000", "184817.799000", "184817.813000", "184817.816000", "184857.798000", "184857.815000", "184857.818000", "184857.824000", "184857.827000", "184857.830000", "184857.838000", "184857.842000", "184857.844000", "184937.797000", "184937.805000", "184937.810000", "184937.818000", "184937.825000", "184937.828000", "184937.836000", "185017.795000", "185017.798000", "185017.801000", "185017.803000", "185017.806000", "185017.809000", "185017.838000", "185017.844000", "185017.847000", "185017.849000", "185017.852000", "185057.791000", "185057.800000", "185057.803000", "185057.820000", "185057.828000", "185057.831000", "185057.840000", "185057.843000", "185137.795000", "185137.797000", "185137.803000", "185137.805000", "185137.811000", "185137.819000", "185137.827000", "185137.830000", "185137.835000", "185137.838000", "185137.841000", "185137.844000", "185217.791000", "185217.800000", "185217.811000", "185217.823000", "185217.831000", "185217.834000", "185217.837000", "185217.846000", "185257.791000", "185257.799000", "185257.802000", "185257.805000", "185257.808000", "185257.810000", "185257.825000", "185257.827000", "185257.836000", "185257.839000", "185257.842000", "185330.647000", "185330.655000", "185330.660000", "185330.666000", "185330.669000", "185330.675000", "185330.677000", "185330.680000", "185330.689000", "185330.695000"],
      "InstanceNumber": [1, 4, 5, 8, 10, 11, 13, 14, 16, 18, 22, 26, 28, 29, 30, 31, 33, 34, 35, 36, 37, 39, 40, 41, 43, 44, 45, 48, 49, 51, 52, 54, 55, 56, 57, 59, 60, 63, 64, 67, 70, 71, 72, 74, 75, 78, 79, 80, 82, 83, 84, 87, 88, 90, 92, 97, 98, 102, 108, 109, 111, 112, 113, 116, 117, 118, 122, 125, 127, 130, 132, 133, 136, 141, 142, 143, 144, 145, 146, 149, 151, 152, 153, 154, 160, 163, 164, 170, 173, 174, 177, 178, 181, 182, 184, 185, 187, 190, 193, 194, 196, 197, 198, 199, 200, 203, 207, 211, 214, 215, 216, 219, 220, 223, 224, 225, 226, 227, 232, 233, 236, 237, 238, 240, 242, 243, 245, 246, 248, 249, 250, 253, 255],
      "LargestImagePixelValue": [954, 955, 895, 810, 863, 864, 784, 917, 872, 818, 813, 897, 833, 799, 853, 797, 986, 804, 781, 889, 788, 817, 785, 857, 921, 964, 809, 923, 832, 907, 863, 797, 819, 824, 965, 773, 822, 918, 841, 787, 972, 971, 799, 787, 932, 827, 849, 915, 940, 987, 829, 819, 851, 1022, 1007, 848, 827, 1096, 896, 833, 821, 820, 902, 967, 773, 826, 833, 813, 780, 1035, 778, 821, 823, 807, 824, 830, 868, 986, 857, 869, 883, 852, 885, 910, 958, 814, 886, 843, 951, 935, 915, 966, 879, 877, 840, 909, 903, 1001, 880, 851, 850, 873, 890, 970, 888, 856, 860, 969, 851, 844, 883, 928, 1016, 863, 860, 863, 889, 945, 930, 847, 868, 906, 872, 964, 1036, 971, 867, 889, 859, 931, 997, 973, 950],
      "WindowCenter": [456.0, 455.0, 454.0, 455.0, 456.0, 456.0, 455.0, 455.0, 455.0, 455.0, 457.0, 457.0, 456.0, 455.0, 456.0, 455.0, 456.0, 455.0, 455.0, 456.0, 455.0, 456.0, 456.0, 458.0, 459.0, 460.0, 458.0, 459.0, 458.0, 459.0, 457.0, 457.0, 458.0, 458.0, 459.0, 459.0, 463.0, 460.0, 458.0, 457.0, 460.0, 459.0, 456.0, 456.0, 457.0, 457.0, 459.0, 466.0, 461.0, 460.0, 457.0, 458.0, 464.0, 459.0, 455.0, 457.0, 461.0, 457.0, 452.0, 451.0, 458.0, 455.0, 456.0, 452.0, 451.0, 451.0, 453.0, 454.0, 453.0, 457.0, 455.0, 455.0, 456.0, 456.0, 457.0, 457.0, 456.0, 456.0, 455.0, 456.0, 456.0, 457.0, 457.0, 457.0, 460.0, 459.0, 459.0, 460.0, 461.0, 462.0, 461.0, 462.0, 462.0, 462.0, 462.0, 463.0, 463.0, 463.0, 464.0, 463.0, 462.0, 464.0, 463.0, 464.0, 463.0, 463.0, 463.0, 464.0, 463.0, 464.0, 463.0, 464.0, 466.0, 463.0, 463.0, 464.0, 463.0, 465.0, 464.0, 463.0, 465.0, 464.0, 465.0, 464.0, 465.0, 466.0, 465.0, 463.0, 463.0, 464.0, 467.0, 465.0, 465.0],
      "WindowWidth": [954.0, 951.0, 950.0, 952.0, 953.0, 954.0, 951.0, 952.0, 953.0, 952.0, 955.0, 955.0, 953.0, 953.0, 953.0, 951.0, 954.0, 951.0, 953.0, 953.0, 953.0, 955.0, 954.0, 958.0, 960.0, 961.0, 959.0, 960.0, 958.0, 958.0, 956.0, 957.0, 958.0, 958.0, 959.0, 960.0, 968.0, 962.0, 958.0, 955.0, 962.0, 959.0, 955.0, 954.0, 956.0, 955.0, 961.0, 974.0, 964.0, 961.0, 957.0, 958.0, 971.0, 959.0, 952.0, 957.0, 965.0, 955.0, 947.0, 945.0, 958.0, 952.0, 954.0, 947.0, 944.0, 945.0, 948.0, 950.0, 948.0, 955.0, 953.0, 953.0, 953.0, 955.0, 957.0, 956.0, 954.0, 954.0, 953.0, 955.0, 954.0, 956.0, 956.0, 956.0, 961.0, 959.0, 960.0, 961.0, 963.0, 966.0, 964.0, 966.0, 966.0, 966.0, 965.0, 968.0, 967.0, 968.0, 969.0, 966.0, 966.0, 969.0, 967.0, 969.0, 968.0, 968.0, 968.0, 970.0, 968.0, 970.0, 968.0, 969.0, 973.0, 968.0, 967.0, 970.0, 967.0, 971.0, 969.0, 967.0, 972.0, 969.0, 970.0, 969.0, 971.0, 973.0, 971.0, 968.0, 968.0, 969.0, 974.0, 972.0, 970.0]
    },
    "slices": {}
  }
}