{
  "AcquisitionMatrixPE": 64,
  "AcquisitionNumber": 2,
  "AcquisitionTime": "19:25:41.082500",
  "BandwidthPerPixelPhaseEncode": 40.064,
  "BaseResolution": 64,
  "BodyPartExamined": "BRAIN",
  "ConsistencyInfo": "N4_VD13D_LATEST_20130810",
  "ConversionSoftware": "dcm2niix",
  "ConversionSoftwareVersion": "v1.0.20191031",
  "DerivedVendorReportedEchoSpacing": 0.000780002,
  "DeviceSerialNumber": "67007",
  "DwellTime": 5.3e-06,
  "EchoTime": 0.03,
  "EchoTrainLength": 31,
  "EffectiveEchoSpacing": 0.000390001,
  "FlipAngle": 75,
  "ImageOrientationPatientDICOM": [0.999504, -0.0265632, 0.0169154, 0.0279187, 0.995929, -0.0857042],
  "ImageType": [
    "ORIGINAL",
    "PRIMARY",
    "M",
    "ND",
    "NORM",
    "MOSAIC"
],
  "ImagingFrequency": 123.211,
  "InPlanePhaseEncodingDirectionDICOM": "ROW",
  "InstitutionAddress": "Perth_Drive_100_London_Ontario_CA_N6A_5K8",
  "InstitutionName": "Robarts-CFMM",
  "InstitutionalDepartmentName": "CFMM",
  "MRAcquisitionType": "2D",
  "MagneticFieldStrength": 3,
  "Manufacturer": "Siemens",
  "ManufacturersModelName": "Prisma_fit",
  "Modality": "MR",
  "ParallelReductionFactorInPlane": 2,
  "PartialFourier": 1,
  "PatientPosition": "HFS",
  "PercentPhaseFOV": 100,
  "PhaseEncodingDirection": "i",
  "PhaseEncodingSteps": 63,
  "PhaseResolution": 1,
  "PixelBandwidth": 1475,
  "ProcedureStepDescription": "Owen_Naci",
  "ProtocolName": "Resting_State_RECOV",
  "PulseSequenceDetails": "%SiemensSeq%_ep2d_bold",
  "ReceiveCoilActiveElements": "HEA;HEP",
  "ReceiveCoilName": "Head_32",
  "ReconMatrixPE": 64,
  "RefLinesPE": 24,
  "RepetitionTime": 2,
  "SAR": 0.0926387,
  "ScanOptions": "FS",
  "ScanningSequence": "EP",
  "SequenceName": "_epfid2d1_64",
  "SequenceVariant": "SK",
  "SeriesDescription": "Resting_State_RECOV",
  "SeriesNumber": 28,
  "ShimSetting": [5257, -6190, -3785, 426, 25, 9, -8, 42],
  "SliceThickness": 3,
  "SliceTiming": [1.92, 1.86, 1.8, 1.74, 1.68, 1.62, 1.56, 1.5, 1.44, 1.38, 1.32, 1.26, 1.2, 1.14, 1.08, 1.02, 0.96, 0.9, 0.84, 0.78, 0.72, 0.66, 0.6, 0.54, 0.48, 0.42, 0.36, 0.3, 0.24, 0.18, 0.12, 0.06, 0],
  "SoftwareVersions": "syngo_MR_D13D",
  "SpacingBetweenSlices": 3.75,
  "StationName": "AWP67007",
  "TaskName": "rest",
  "TotalReadoutTime": 0.0245701,
  "TxRefAmp": 266.848,
  "dcmmeta_affine": [
    [-2.998512029647827, 0.08375602215528488, 0.05463742837309837, 93.5044937133789],
    [0.07968969643115997, 2.987788200378418, -0.32300230860710144, -77.36299133300781],
    [0.05074625462293625, 0.257112592458725, 3.735663890838623, -27.535425186157227],
    [0.0, 0.0, 0.0, 1.0]
],
  "dcmmeta_reorient_transform": [
    [0.0, -1.0, 0.0, 63.0],
    [1.0, 0.0, 0.0, 0.0],
    [0.0, 0.0, 1.0, 0.0],
    [0.0, 0.0, 0.0, 1.0]
],
  "dcmmeta_shape": [64, 64, 33, 156],
  "dcmmeta_slice_dim": 2,
  "dcmmeta_version": 0.6,
  "global": {
    "const": {
      "AcquisitionMatrix": [0, 64, 64, 0],
      "AngioFlag": "N",
      "BitsAllocated": 16,
      "BitsStored": 12,
      "BodyPartExamined": "BRAIN",
      "Columns": 384,
      "EchoNumbers": 1,
      "EchoTime": 30.0,
      "EchoTrainLength": 31,
      "FlipAngle": 75.0,
      "HighBit": 11,
      "ImageOrientationPatient": [0.99950400865347, -0.0265632325626, 0.01691541786268, 0.02791867365027, 0.99592938372995, -0.0857042022593],
      "ImagePositionPatient": [-591.94400748564, -576.16341480641, 21.681286421936],
      "ImageType": [
        "ORIGINAL",
        "PRIMARY",
        "M",
        "ND",
        "NORM",
        "MOSAIC"
],
      "ImagedNucleus": "1H",
      "ImagingFrequency": 123.210998,
      "InPlanePhaseEncodingDirection": "ROW",
      "MRAcquisitionType": "2D",
      "MagneticFieldStrength": 3.0,
      "Manufacturer": "SIEMENS",
      "ManufacturerModelName": "Prisma_fit",
      "Modality": "MR",
      "NumberOfAverages": 1.0,
      "NumberOfPhaseEncodingSteps": 63,
      "PercentPhaseFieldOfView": 100.0,
      "PercentSampling": 100.0,
      "PerformedProcedureStepStartTime": "171722.110000",
      "PhotometricInterpretation": "MONOCHROME2",
      "PixelBandwidth": 1475.0,
      "PixelRepresentation": 0,
      "PixelSpacing": [3.0, 3.0],
      "ProtocolName": "Resting State_RECOV",
      "RepetitionTime": 2000.0,
      "Rows": 384,
      "SAR": 0.09263874636941,
      "SamplesPerPixel": 1,
      "ScanOptions": "FS",
      "ScanningSequence": "EP",
      "SequenceName": "*epfid2d1_64",
      "SequenceVariant": "SK",
      "SeriesDescription": "Resting State_RECOV",
      "SeriesNumber": 28,
      "SeriesTime": "192627.333000",
      "SliceLocation": -19.404218324505,
      "SliceThickness": 3.0,
      "SmallestImagePixelValue": 0,
      "SoftwareVersions": "syngo MR D13D",
      "SpacingBetweenSlices": 3.7500000025786,
      "SpecificCharacterSet": "ISO_IR 100",
      "StudyID": "1",
      "StudyTime": "171722.004000",
      "TimeOfLastCalibration": ["123723.000000", "123723.000000"],
      "TransmitCoilName": "Body",
      "VariableFlipAngleFlag": "N",
      "WindowCenterWidthExplanation": "Algo1",
      "dBdt": 0.0},
    "slices": {}
  },
  "time": {
    "samples": {
      "AcquisitionNumber": [2, 5, 6, 8, 9, 10, 11, 15, 17, 18, 19, 20, 23, 24, 25, 26, 29, 30, 31, 32, 33, 37, 38, 39, 41, 42, 43, 45, 46, 49, 51, 53, 55, 57, 58, 61, 62, 64, 65, 66, 69, 70, 71, 72, 75, 76, 78, 81, 82, 85, 86, 87, 88, 89, 90, 95, 96, 97, 99, 100, 101, 103, 105, 107, 108, 109, 110, 111, 114, 115, 116, 117, 120, 121, 122, 123, 124, 126, 129, 130, 131, 132, 133, 134, 136, 138, 139, 140, 141, 144, 145, 146, 147, 148, 149, 150, 151, 153, 154, 157, 158, 160, 163, 164, 165, 169, 171, 172, 174, 176, 179, 181, 182, 184, 185, 191, 192, 195, 196, 199, 201, 202, 205, 207, 208, 209, 210, 211, 212, 214, 215, 216, 219, 220, 221, 222, 225, 226, 228, 229, 231, 232, 233, 235, 237, 238, 239, 240, 242, 245, 246, 249, 250, 251, 253, 256],
      "AcquisitionTime": ["192541.082500", "192547.082500", "192549.082500", "192553.082500", "192555.082500", "192557.082500", "192559.082500", "192607.082500", "192611.082500", "192613.082500", "192615.082500", "192617.082500", "192623.082500", "192625.082500", "192627.082500", "192629.082500", "192635.082500", "192637.082500", "192639.082500", "192641.082500", "192643.082500", "192651.082500", "192653.082500", "192655.082500", "192659.082500", "192701.082500", "192703.082500", "192707.082500", "192709.082500", "192715.082500", "192719.082500", "192723.082500", "192727.082500", "192731.082500", "192733.082500", "192739.082500", "192741.082500", "192745.082500", "192747.082500", "192749.082500", "192755.082500", "192757.082500", "192759.082500", "192801.082500", "192807.082500", "192809.082500", "192813.082500", "192819.082500", "192821.082500", "192827.082500", "192829.082500", "192831.082500", "192833.082500", "192835.082500", "192837.082500", "192847.082500", "192849.082500", "192851.082500", "192855.082500", "192857.082500", "192859.082500", "192903.082500", "192907.082500", "192911.082500", "192913.082500", "192915.082500", "192917.082500", "192919.082500", "192925.082500", "192927.082500", "192929.082500", "192931.082500", "192937.082500", "192939.082500", "192941.082500", "192943.082500", "192945.082500", "192949.082500", "192955.082500", "192957.082500", "192959.082500", "193001.082500", "193003.082500", "193005.082500", "193009.082500", "193013.085000", "193015.085000", "193017.085000", "193019.085000", "193025.085000", "193027.085000", "193029.085000", "193031.085000", "193033.085000", "193035.085000", "193037.085000", "193039.085000", "193043.085000", "193045.085000", "193051.085000", "193053.085000", "193057.085000", "193103.085000", "193105.085000", "193107.085000", "193115.085000", "193119.085000", "193121.085000", "193125.085000", "193129.085000", "193135.085000", "193139.085000", "193141.085000", "193145.085000", "193147.085000", "193159.085000", "193201.085000", "193207.085000", "193209.085000", "193215.085000", "193219.085000", "193221.085000", "193227.085000", "193231.085000", "193233.085000", "193235.085000", "193237.085000", "193239.085000", "193241.085000", "193245.085000", "193247.085000", "193249.085000", "193255.085000", "193257.085000", "193259.085000", "193301.085000", "193307.085000", "193309.085000", "193313.085000", "193315.085000", "193319.085000", "193321.085000", "193323.085000", "193327.085000", "193331.085000", "193333.085000", "193335.085000", "193337.085000", "193341.085000", "193347.085000", "193349.085000", "193355.085000", "193357.085000", "193359.085000", "193403.085000", "193409.085000"],
      "ContentTime": ["192627.341000", "192627.353000", "192627.356000", "192627.361000", "192627.364000", "192627.367000", "192627.369000", "192627.380000", "192627.386000", "192627.388000", "192627.391000", "192627.394000", "192627.403000", "192627.406000", "192707.330000", "192707.333000", "192707.341000", "192707.344000", "192707.347000", "192707.350000", "192707.352000", "192707.364000", "192707.367000", "192707.370000", "192707.375000", "192707.378000", "192707.381000", "192747.329000", "192747.332000", "192747.341000", "192747.347000", "192747.353000", "192747.358000", "192747.364000", "192747.366000", "192747.375000", "192747.377000", "192747.383000", "192827.328000", "192827.332000", "192827.340000", "192827.343000", "192827.346000", "192827.349000", "192827.358000", "192827.362000", "192827.368000", "192827.377000", "192827.381000", "192907.330000", "192907.333000", "192907.336000", "192907.339000", "192907.342000", "192907.344000", "192907.359000", "192907.362000", "192907.365000", "192907.371000", "192907.373000", "192907.376000", "192907.382000", "192947.329000", "192947.335000", "192947.338000", "192947.341000", "192947.344000", "192947.346000", "192947.355000", "192947.357000", "192947.360000", "192947.363000", "192947.371000", "192947.374000", "192947.377000", "192947.380000", "192947.382000", "193027.333000", "193027.342000", "193027.345000", "193027.347000", "193027.350000", "193027.353000", "193027.356000", "193027.362000", "193027.368000", "193027.371000", "193027.374000", "193027.377000", "193027.385000", "193107.330000", "193107.333000", "193107.336000", "193107.338000", "193107.341000", "193107.344000", "193107.346000", "193107.352000", "193107.355000", "193107.363000", "193107.365000", "193107.371000", "193107.380000", "193107.382000", "193147.329000", "193147.340000", "193147.345000", "193147.348000", "193147.354000", "193147.359000", "193147.367000", "193147.373000", "193147.376000", "193147.382000", "193227.329000", "193227.346000", "193227.349000", "193227.358000", "193227.361000", "193227.370000", "193227.375000", "193227.378000", "193307.329000", "193307.335000", "193307.338000", "193307.340000", "193307.343000", "193307.346000", "193307.349000", "193307.354000", "193307.357000", "193307.360000", "193307.369000", "193307.372000", "193307.375000", "193307.377000", "193347.329000", "193347.332000", "193347.337000", "193347.340000", "193347.346000", "193347.349000", "193347.352000", "193347.357000", "193347.363000", "193347.366000", "193347.368000", "193347.371000", "193347.377000", "193409.817000", "193409.820000", "193409.829000", "193409.832000", "193409.835000", "193409.847000", "193409.862000"],
      "InstanceCreationTime": ["192627.341000", "192627.353000", "192627.356000", "192627.361000", "192627.364000", "192627.367000", "192627.369000", "192627.380000", "192627.386000", "192627.388000", "192627.391000", "192627.394000", "192627.403000", "192627.406000", "192707.330000", "192707.333000", "192707.341000", "192707.344000", "192707.347000", "192707.350000", "192707.352000", "192707.364000", "192707.367000", "192707.370000", "192707.375000", "192707.378000", "192707.381000", "192747.329000", "192747.332000", "192747.341000", "192747.347000", "192747.353000", "192747.358000", "192747.364000", "192747.366000", "192747.375000", "192747.377000", "192747.383000", "192827.328000", "192827.332000", "192827.340000", "192827.343000", "192827.346000", "192827.349000", "192827.358000", "192827.362000", "192827.368000", "192827.377000", "192827.381000", "192907.330000", "192907.333000", "192907.336000", "192907.339000", "192907.342000", "192907.344000", "192907.359000", "192907.362000", "192907.365000", "192907.371000", "192907.373000", "192907.376000", "192907.382000", "192947.329000", "192947.335000", "192947.338000", "192947.341000", "192947.344000", "192947.346000", "192947.355000", "192947.357000", "192947.360000", "192947.363000", "192947.371000", "192947.374000", "192947.377000", "192947.380000", "192947.382000", "193027.333000", "193027.342000", "193027.345000", "193027.347000", "193027.350000", "193027.353000", "193027.356000", "193027.362000", "193027.368000", "193027.371000", "193027.374000", "193027.377000", "193027.385000", "193107.330000", "193107.333000", "193107.336000", "193107.338000", "193107.341000", "193107.344000", "193107.346000", "193107.352000", "193107.355000", "193107.363000", "193107.365000", "193107.371000", "193107.380000", "193107.382000", "193147.329000", "193147.340000", "193147.345000", "193147.348000", "193147.354000", "193147.359000", "193147.367000", "193147.373000", "193147.376000", "193147.382000", "193227.329000", "193227.346000", "193227.349000", "193227.358000", "193227.361000", "193227.370000", "193227.375000", "193227.378000", "193307.329000", "193307.335000", "193307.338000", "193307.340000", "193307.343000", "193307.346000", "193307.349000", "193307.354000", "193307.357000", "193307.360000", "193307.369000", "193307.372000", "193307.375000", "193307.377000", "193347.329000", "193347.332000", "193347.337000", "193347.340000", "193347.346000", "193347.349000", "193347.352000", "193347.357000", "193347.363000", "193347.366000", "193347.368000", "193347.371000", "193347.377000", "193409.817000", "193409.820000", "193409.829000", "193409.832000", "193409.835000", "193409.847000", "193409.862000"],
      "InstanceNumber": [2, 5, 6, 8, 9, 10, 11, 15, 17, 18, 19, 20, 23, 24, 25, 26, 29, 30, 31, 32, 33, 37, 38, 39, 41, 42, 43, 45, 46, 49, 51, 53, 55, 57, 58, 61, 62, 64, 65, 66, 69, 70, 71, 72, 75, 76, 78, 81, 82, 85, 86, 87, 88, 89, 90, 95, 96, 97, 99, 100, 101, 103, 105, 107, 108, 109, 110, 111, 114, 115, 116, 117, 120, 121, 122, 123, 124, 126, 129, 130, 131, 132, 133, 134, 136, 138, 139, 140, 141, 144, 145, 146, 147, 148, 149, 150, 151, 153, 154, 157, 158, 160, 163, 164, 165, 169, 171, 172, 174, 176, 179, 181, 182, 184, 185, 191, 192, 195, 196, 199, 201, 202, 205, 207, 208, 209, 210, 211, 212, 214, 215, 216, 219, 220, 221, 222, 225, 226, 228, 229, 231, 232, 233, 235, 237, 238, 239, 240, 242, 245, 246, 249, 250, 251, 253, 256],
      "LargestImagePixelValue": [897, 846, 819, 825, 806, 925, 848, 843, 943, 808, 793, 777, 836, 790, 911, 798, 764, 759, 764, 808, 792, 835, 923, 811, 855, 806, 874, 896, 806, 782, 900, 786, 773, 801, 793, 803, 833, 790, 858, 874, 921, 869, 831, 790, 804, 786, 924, 853, 798, 864, 852, 776, 787, 857, 910, 787, 843, 797, 806, 939, 803, 801, 797, 909, 792, 856, 817, 791, 858, 860, 797, 794, 799, 806, 854, 843, 876, 791, 885, 799, 821, 802, 794, 835, 850, 796, 799, 875, 794, 790, 886, 791, 794, 788, 830, 798, 789, 802, 818, 816, 822, 838, 788, 876, 801, 848, 816, 796, 791, 851, 794, 792, 804, 794, 926, 787, 783, 833, 876, 817, 805, 806, 873, 828, 830, 858, 802, 872, 797, 814, 873, 795, 863, 799, 833, 900, 791, 785, 902, 838, 806, 789, 786, 932, 784, 798, 856, 808, 817, 787, 945, 855, 820, 823, 817, 835],
      "WindowCenter": [453.0, 453.0, 450.0, 452.0, 453.0, 453.0, 450.0, 455.0, 454.0, 450.0, 450.0, 451.0, 451.0, 451.0, 453.0, 451.0, 449.0, 449.0, 449.0, 449.0, 450.0, 453.0, 453.0, 451.0, 451.0, 451.0, 453.0, 454.0, 451.0, 450.0, 451.0, 450.0, 451.0, 451.0, 451.0, 451.0, 453.0, 451.0, 451.0, 451.0, 453.0, 451.0, 451.0, 451.0, 451.0, 451.0, 452.0, 452.0, 451.0, 453.0, 453.0, 454.0, 454.0, 455.0, 454.0, 452.0, 451.0, 452.0, 451.0, 452.0, 450.0, 452.0, 450.0, 452.0, 452.0, 453.0, 451.0, 451.0, 453.0, 451.0, 451.0, 452.0, 451.0, 451.0, 454.0, 453.0, 454.0, 449.0, 453.0, 451.0, 451.0, 450.0, 451.0, 452.0, 451.0, 450.0, 452.0, 451.0, 451.0, 451.0, 453.0, 451.0, 452.0, 451.0, 452.0, 452.0, 452.0, 450.0, 449.0, 452.0, 454.0, 450.0, 452.0, 451.0, 452.0, 451.0, 450.0, 449.0, 452.0, 452.0, 452.0, 454.0, 454.0, 450.0, 451.0, 450.0, 451.0, 451.0, 451.0, 452.0, 450.0, 450.0, 452.0, 451.0, 451.0, 453.0, 451.0, 453.0, 451.0, 450.0, 450.0, 449.0, 451.0, 451.0, 451.0, 452.0, 451.0, 451.0, 456.0, 452.0, 450.0, 451.0, 451.0, 452.0, 452.0, 452.0, 452.0, 451.0, 454.0, 451.0, 453.0, 451.0, 452.0, 454.0, 452.0, 454.0],
      "WindowWidth": [949.0, 948.0, 943.0, 948.0, 948.0, 948.0, 944.0, 952.0, 949.0, 944.0, 942.0, 945.0, 944.0, 944.0, 948.0, 945.0, 940.0, 940.0, 942.0, 942.0, 943.0, 949.0, 947.0, 946.0, 944.0, 946.0, 947.0, 950.0, 945.0, 943.0, 945.0, 943.0, 945.0, 945.0, 944.0, 945.0, 948.0, 944.0, 945.0, 945.0, 948.0, 945.0, 944.0, 946.0, 944.0, 946.0, 946.0, 946.0, 945.0, 949.0, 949.0, 951.0, 951.0, 952.0, 950.0, 946.0, 945.0, 947.0, 944.0, 947.0, 943.0, 947.0, 943.0, 947.0, 946.0, 948.0, 944.0, 944.0, 948.0, 945.0, 944.0, 947.0, 945.0, 946.0, 951.0, 948.0, 950.0, 942.0, 949.0, 945.0, 945.0, 943.0, 944.0, 946.0, 944.0, 943.0, 946.0, 945.0, 945.0, 946.0, 947.0, 945.0, 946.0, 945.0, 947.0, 946.0, 946.0, 943.0, 941.0, 947.0, 950.0, 943.0, 946.0, 946.0, 946.0, 944.0, 943.0, 941.0, 946.0, 946.0, 947.0, 950.0, 950.0, 943.0, 944.0, 943.0, 944.0, 945.0, 944.0, 946.0, 943.0, 943.0, 946.0, 944.0, 945.0, 948.0, 945.0, 948.0, 944.0, 943.0, 943.0, 942.0, 944.0, 944.0, 946.0, 946.0, 945.0, 945.0, 955.0, 947.0, 944.0, 944.0, 946.0, 946.0, 946.0, 948.0, 946.0, 946.0, 950.0, 946.0, 947.0, 945.0, 947.0, 951.0, 946.0, 950.0]
    },
    "slices": {}
  }
}