{
  "AcquisitionMatrixPE": 64,
  "AcquisitionNumber": 1,
  "AcquisitionTime": "16:36:31.245000",
  "BandwidthPerPixelPhaseEncode": 40.064,
  "BaseResolution": 64,
  "BodyPartExamined": "BRAIN",
  "ConsistencyInfo": "N4_VD13D_LATEST_20130810",
  "ConversionSoftware": "dcm2niix",
  "ConversionSoftwareVersion": "v1.0.20191031",
  "DerivedVendorReportedEchoSpacing": 0.000780002,
  "DeviceSerialNumber": "67007",
  "DwellTime": 5.3e-06,
  "EchoTime": 0.03,
  "EchoTrainLength": 31,
  "EffectiveEchoSpacing": 0.000390001,
  "FlipAngle": 75,
  "ImageOrientationPatientDICOM": [0.999984, -0.00335999, 0.00465511, 0.00349061, 0.999592, -0.0283416],
  "ImageType": [
    "ORIGINAL",
    "PRIMARY",
    "M",
    "ND",
    "NORM",
    "MOSAIC"
],
  "ImagingFrequency": 123.211,
  "InPlanePhaseEncodingDirectionDICOM": "ROW",
  "InstitutionAddress": "Perth_Drive_100_London_Ontario_CA_N6A_5K8",
  "InstitutionName": "Robarts_Research_Institute",
  "InstitutionalDepartmentName": "CFMM",
  "MRAcquisitionType": "2D",
  "MagneticFieldStrength": 3,
  "Manufacturer": "Siemens",
  "ManufacturersModelName": "Prisma_fit",
  "Modality": "MR",
  "ParallelReductionFactorInPlane": 2,
  "PartialFourier": 1,
  "PatientPosition": "HFS",
  "PercentPhaseFOV": 100,
  "PhaseEncodingDirection": "i",
  "PhaseEncodingSteps": 63,
  "PhaseResolution": 1,
  "PixelBandwidth": 1475,
  "ProcedureStepDescription": "Owen_Naci",
  "ProtocolName": "Resting_State_light_sed",
  "PulseSequenceDetails": "%SiemensSeq%_ep2d_bold",
  "ReceiveCoilActiveElements": "HEA;HEP",
  "ReceiveCoilName": "Head_32",
  "ReconMatrixPE": 64,
  "RefLinesPE": 24,
  "RepetitionTime": 2,
  "SAR": 0.132954,
  "ScanOptions": "FS",
  "ScanningSequence": "EP",
  "SequenceName": "_epfid2d1_64",
  "SequenceVariant": "SK",
  "SeriesDescription": "Resting_State_light_sed",
  "SeriesNumber": 9,
  "ShimSetting": [5255, -6234, -3772, 399, 16, -109, -48, 23],
  "SliceThickness": 3,
  "SliceTiming": [1.92, 1.86, 1.8, 1.74, 1.68, 1.62, 1.56, 1.5, 1.44, 1.38, 1.32, 1.26, 1.2, 1.14, 1.08, 1.02, 0.96, 0.9, 0.84, 0.78, 0.72, 0.66, 0.6, 0.54, 0.48, 0.42, 0.36, 0.3, 0.24, 0.18, 0.12, 0.06, 0],
  "SoftwareVersions": "syngo_MR_D13D",
  "SpacingBetweenSlices": 3.75,
  "StationName": "AWP67007",
  "TaskName": "restlight",
  "TotalReadoutTime": 0.0245701,
  "TxRefAmp": 325.354,
  "dcmmeta_affine": [
    [-2.999950647354126, 0.010471844114363194, 0.017092429101467133, 92.07388305664062],
    [0.010079982690513134, 2.99877667427063, -0.10634028911590576, -77.77133178710938],
    [0.013965321704745293, 0.0850248858332634, 3.74845290184021, -17.93732452392578],
    [0.0, 0.0, 0.0, 1.0]
],
  "dcmmeta_reorient_transform": [
    [0.0, -1.0, 0.0, 63.0],
    [1.0, 0.0, 0.0, 0.0],
    [0.0, 0.0, 1.0, 0.0],
    [0.0, 0.0, 0.0, 1.0]
],
  "dcmmeta_shape": [64, 64, 33, 256],
  "dcmmeta_slice_dim": 2,
  "dcmmeta_version": 0.6,
  "global": {
    "const": {
      "AcquisitionMatrix": [0, 64, 64, 0],
      "AngioFlag": "N",
      "BitsAllocated": 16,
      "BitsStored": 12,
      "BodyPartExamined": "BRAIN",
      "Columns": 384,
      "EchoNumbers": 1,
      "EchoTime": 30.0,
      "EchoTrainLength": 31,
      "FlipAngle": 75.0,
      "HighBit": 11,
      "ImageOrientationPatient": [0.99998352007274, -0.003359994191, 0.00465510708477, 0.00349061483045, 0.99959220068844, -0.0283416289396],
      "ImagePositionPatient": [-574.4011940676, -589.34305374555, -1.2112263068027],
      "ImageType": [
        "ORIGINAL",
        "PRIMARY",
        "M",
        "ND",
        "NORM",
        "MOSAIC"
],
      "ImagedNucleus": "1H",
      "ImagingFrequency": 123.211161,
      "InPlanePhaseEncodingDirection": "ROW",
      "MRAcquisitionType": "2D",
      "MagneticFieldStrength": 3.0,
      "Manufacturer": "SIEMENS",
      "ManufacturerModelName": "Prisma_fit",
      "Modality": "MR",
      "NumberOfAverages": 1.0,
      "NumberOfPhaseEncodingSteps": 63,
      "PercentPhaseFieldOfView": 100.0,
      "PercentSampling": 100.0,
      "PerformedProcedureStepStartTime": "154514.560000",
      "PhotometricInterpretation": "MONOCHROME2",
      "PixelBandwidth": 1475.0,
      "PixelRepresentation": 0,
      "PixelSpacing": [3.0, 3.0],
      "ProtocolName": "Resting State_light sed",
      "RepetitionTime": 2000.0,
      "Rows": 384,
      "SAR": 0.13295411376362,
      "SamplesPerPixel": 1,
      "ScanOptions": "FS",
      "ScanningSequence": "EP",
      "SequenceName": "*epfid2d1_64",
      "SequenceVariant": "SK",
      "SeriesDescription": "Resting State_light sed",
      "SeriesNumber": 9,
      "SeriesTime": "163722.530000",
      "SliceLocation": -15.304860107223,
      "SliceThickness": 3.0,
      "SmallestImagePixelValue": 0,
      "SoftwareVersions": "syngo MR D13D",
      "SpacingBetweenSlices": 3.7500000314416,
      "SpecificCharacterSet": "ISO_IR 100",
      "StudyID": "1",
      "StudyTime": "154514.455000",
      "TimeOfLastCalibration": ["123723.000000", "123723.000000"],
      "TransmitCoilName": "Body",
      "VariableFlipAngleFlag": "N",
      "WindowCenterWidthExplanation": "Algo1",
      "dBdt": 0.0},
    "slices": {}
  },
  "time": {
    "samples": {
      "AcquisitionNumber": [1, 2, 3, 4, 5, 6, 7, 8, 9, 10, 11, 12, 13, 14, 15, 16, 17, 18, 19, 20, 21, 22, 23, 24, 25, 26, 27, 28, 29, 30, 31, 32, 33, 34, 35, 36, 37, 38, 39, 40, 41, 42, 43, 44, 45, 46, 47, 48, 49, 50, 51, 52, 53, 54, 55, 56, 57, 58, 59, 60, 61, 62, 63, 64, 65, 66, 67, 68, 69, 70, 71, 72, 73, 74, 75, 76, 77, 78, 79, 80, 81, 82, 83, 84, 85, 86, 87, 88, 89, 90, 91, 92, 93, 94, 95, 96, 97, 98, 99, 100, 101, 102, 103, 104, 105, 106, 107, 108, 109, 110, 111, 112, 113, 114, 115, 116, 117, 118, 119, 120, 121, 122, 123, 124, 125, 126, 127, 128, 129, 130, 131, 132, 133, 134, 135, 136, 137, 138, 139, 140, 141, 142, 143, 144, 145, 146, 147, 148, 149, 150, 151, 152, 153, 154, 155, 156, 157, 158, 159, 160, 161, 162, 163, 164, 165, 166, 167, 168, 169, 170, 171, 172, 173, 174, 175, 176, 177, 178, 179, 180, 181, 182, 183, 184, 185, 186, 187, 188, 189, 190, 191, 192, 193, 194, 195, 196, 197, 198, 199, 200, 201, 202, 203, 204, 205, 206, 207, 208, 209, 210, 211, 212, 213, 214, 215, 216, 217, 218, 219, 220, 221, 222, 223, 224, 225, 226, 227, 228, 229, 230, 231, 232, 233, 234, 235, 236, 237, 238, 239, 240, 241, 242, 243, 244, 245, 246, 247, 248, 249, 250, 251, 252, 253, 254, 255, 256],
      "AcquisitionTime": ["163631.245000", "163633.245000", "163635.245000", "163637.245000", "163639.245000", "163641.245000", "163643.245000", "163645.245000", "163647.245000", "163649.245000", "163651.245000", "163653.245000", "163655.245000", "163657.245000", "163659.245000", "163701.245000", "163703.245000", "163705.245000", "163707.245000", "163709.245000", "163711.245000", "163713.245000", "163715.245000", "163717.245000", "163719.245000", "163721.245000", "163723.245000", "163725.245000", "163727.245000", "163729.245000", "163731.245000", "163733.245000", "163735.245000", "163737.245000", "163739.245000", "163741.245000", "163743.245000", "163745.245000", "163747.245000", "163749.245000", "163751.245000", "163753.245000", "163755.245000", "163757.245000", "163759.247500", "163801.247500", "163803.247500", "163805.247500", "163807.247500", "163809.247500", "163811.247500", "163813.247500", "163815.247500", "163817.247500", "163819.247500", "163821.247500", "163823.247500", "163825.247500", "163827.247500", "163829.247500", "163831.247500", "163833.247500", "163835.247500", "163837.247500", "163839.247500", "163841.247500", "163843.247500", "163845.247500", "163847.247500", "163849.247500", "163851.247500", "163853.247500", "163855.247500", "163857.247500", "163859.247500", "163901.247500", "163903.247500", "163905.247500", "163907.247500", "163909.247500", "163911.247500", "163913.247500", "163915.247500", "163917.247500", "163919.247500", "163921.247500", "163923.247500", "163925.247500", "163927.247500", "163929.247500", "163931.247500", "163933.247500", "163935.247500", "163937.247500", "163939.247500", "163941.247500", "163943.247500", "163945.247500", "163947.247500", "163949.247500", "163951.247500", "163953.247500", "163955.247500", "163957.247500", "163959.247500", "164001.247500", "164003.247500", "164005.247500", "164007.247500", "164009.247500", "164011.247500", "164013.247500", "164015.247500", "164017.247500", "164019.247500", "164021.247500", "164023.247500", "164025.247500", "164027.247500", "164029.247500", "164031.247500", "164033.247500", "164035.247500", "164037.247500", "164039.247500", "164041.247500", "164043.247500", "164045.247500", "164047.247500", "164049.247500", "164051.247500", "164053.247500", "164055.247500", "164057.247500", "164059.247500", "164101.247500", "164103.247500", "164105.247500", "164107.247500", "164109.247500", "164111.247500", "164113.247500", "164115.247500", "164117.247500", "164119.247500", "164121.247500", "164123.247500", "164125.247500", "164127.247500", "164129.247500", "164131.247500", "164133.247500", "164135.247500", "164137.247500", "164139.247500", "164141.247500", "164143.247500", "164145.247500", "164147.247500", "164149.247500", "164151.247500", "164153.247500", "164155.247500", "164157.247500", "164159.247500", "164201.247500", "164203.247500", "164205.247500", "164207.247500", "164209.247500", "164211.247500", "164213.247500", "164215.247500", "164217.247500", "164219.247500", "164221.247500", "164223.247500", "164225.247500", "164227.247500", "164229.247500", "164231.247500", "164233.247500", "164235.247500", "164237.247500", "164239.247500", "164241.247500", "164243.247500", "164245.247500", "164247.247500", "164249.247500", "164251.247500", "164253.247500", "164255.247500", "164257.247500", "164259.247500", "164301.247500", "164303.247500", "164305.247500", "164307.247500", "164309.247500", "164311.247500", "164313.247500", "164315.247500", "164317.247500", "164319.247500", "164321.247500", "164323.247500", "164325.247500", "164327.247500", "164329.247500", "164331.247500", "164333.247500", "164335.247500", "164337.247500", "164339.247500", "164341.247500", "164343.247500", "164345.247500", "164347.247500", "164349.247500", "164351.247500", "164353.247500", "164355.247500", "164357.247500", "164359.247500", "164401.247500", "164403.247500", "164405.247500", "164407.247500", "164409.247500", "164411.247500", "164413.247500", "164415.247500", "164417.247500", "164419.247500", "164421.247500", "164423.247500", "164425.247500", "164427.247500", "164429.247500", "164431.247500", "164433.247500", "164435.247500", "164437.247500", "164439.247500", "164441.247500", "164443.247500", "164445.247500", "164447.247500", "164449.247500", "164451.247500", "164453.247500", "164455.247500", "164457.247500", "164459.247500", "164501.247500"],
      "ContentTime": ["163722.535000", "163722.539000", "163722.542000", "163722.545000", "163722.553000", "163722.559000", "163722.563000", "163722.567000", "163722.570000", "163722.575000", "163722.578000", "163722.580000", "163722.583000", "163722.586000", "163722.589000", "163722.592000", "163722.594000", "163722.597000", "163722.600000", "163722.603000", "163722.611000", "163722.614000", "163722.618000", "163722.621000", "163722.624000", "163722.626000", "163802.528000", "163802.532000", "163802.534000", "163802.537000", "163802.540000", "163802.543000", "163802.546000", "163802.549000", "163802.552000", "163802.555000", "163802.558000", "163802.560000", "163802.563000", "163802.566000", "163802.569000", "163802.572000", "163802.575000", "163802.578000", "163802.580000", "163802.583000", "163842.529000", "163842.533000", "163842.536000", "163842.538000", "163842.541000", "163842.544000", "163842.547000", "163842.550000", "163842.553000", "163842.556000", "163842.558000", "163842.561000", "163842.564000", "163842.567000", "163842.570000", "163842.572000", "163842.575000", "163842.578000", "163842.581000", "163842.584000", "163922.530000", "163922.534000", "163922.537000", "163922.539000", "163922.542000", "163922.545000", "163922.548000", "163922.551000", "163922.554000", "163922.557000", "163922.560000", "163922.562000", "163922.565000", "163922.568000", "163922.571000", "163922.573000", "163922.576000", "163922.579000", "163922.582000", "163922.585000", "164002.529000", "164002.532000", "164002.535000", "164002.538000", "164002.541000", "164002.544000", "164002.546000", "164002.550000", "164002.552000", "164002.555000", "164002.558000", "164002.561000", "164002.564000", "164002.567000", "164002.570000", "164002.572000", "164002.580000", "164002.583000", "164002.587000", "164002.590000", "164042.530000", "164042.534000", "164042.536000", "164042.539000", "164042.542000", "164042.545000", "164042.548000", "164042.551000", "164042.554000", "164042.557000", "164042.560000", "164042.562000", "164042.565000", "164042.568000", "164042.571000", "164042.574000", "164042.577000", "164042.579000", "164042.582000", "164042.585000", "164122.529000", "164122.533000", "164122.536000", "164122.539000", "164122.541000", "164122.544000", "164122.547000", "164122.550000", "164122.553000", "164122.556000", "164122.559000", "164122.562000", "164122.565000", "164122.567000", "164122.570000", "164122.573000", "164122.576000", "164122.579000", "164122.582000", "164122.585000", "164202.529000", "164202.532000", "164202.535000", "164202.538000", "164202.541000", "164202.544000", "164202.547000", "164202.550000", "164202.553000", "164202.556000", "164202.559000", "164202.562000", "164202.565000", "164202.568000", "164202.571000", "164202.574000", "164202.576000", "164202.579000", "164202.582000", "164202.585000", "164242.530000", "164242.533000", "164242.536000", "164242.539000", "164242.542000", "164242.545000", "164242.548000", "164242.551000", "164242.554000", "164242.557000", "164242.560000", "164242.563000", "164242.565000", "164242.568000", "164242.571000", "164242.574000", "164242.577000", "164242.580000", "164242.582000", "164242.585000", "164322.529000", "164322.533000", "164322.535000", "164322.538000", "164322.541000", "164322.544000", "164322.547000", "164322.549000", "164322.553000", "164322.556000", "164322.558000", "164322.561000", "164322.564000", "164322.567000", "164322.570000", "164322.573000", "164322.576000", "164322.578000", "164322.581000", "164322.584000", "164402.529000", "164402.532000", "164402.535000", "164402.538000", "164402.540000", "164402.543000", "164402.546000", "164402.549000", "164402.552000", "164402.555000", "164402.557000", "164402.560000", "164402.563000", "164402.565000", "164402.568000", "164402.571000", "164402.574000", "164402.577000", "164402.580000", "164402.583000", "164442.529000", "164442.532000", "164442.535000", "164442.538000", "164442.540000", "164442.543000", "164442.546000", "164442.549000", "164442.552000", "164442.555000", "164442.557000", "164442.560000", "164442.563000", "164442.566000", "164442.569000", "164442.572000", "164442.574000", "164442.577000", "164442.580000", "164442.583000", "164502.273000", "164502.276000", "164502.279000", "164502.281000", "164502.284000", "164502.287000", "164502.290000", "164502.293000", "164502.296000", "164502.299000"],
      "InstanceCreationTime": ["163722.535000", "163722.539000", "163722.542000", "163722.545000", "163722.553000", "163722.559000", "163722.563000", "163722.567000", "163722.570000", "163722.575000", "163722.578000", "163722.580000", "163722.583000", "163722.586000", "163722.589000", "163722.592000", "163722.594000", "163722.597000", "163722.600000", "163722.603000", "163722.611000", "163722.614000", "163722.618000", "163722.621000", "163722.624000", "163722.626000", "163802.528000", "163802.532000", "163802.534000", "163802.537000", "163802.540000", "163802.543000", "163802.546000", "163802.549000", "163802.552000", "163802.555000", "163802.558000", "163802.560000", "163802.563000", "163802.566000", "163802.569000", "163802.572000", "163802.575000", "163802.578000", "163802.580000", "163802.583000", "163842.529000", "163842.533000", "163842.536000", "163842.538000", "163842.541000", "163842.544000", "163842.547000", "163842.550000", "163842.553000", "163842.556000", "163842.558000", "163842.561000", "163842.564000", "163842.567000", "163842.570000", "163842.572000", "163842.575000", "163842.578000", "163842.581000", "163842.584000", "163922.530000", "163922.534000", "163922.537000", "163922.539000", "163922.542000", "163922.545000", "163922.548000", "163922.551000", "163922.554000", "163922.557000", "163922.560000", "163922.562000", "163922.565000", "163922.568000", "163922.571000", "163922.573000", "163922.576000", "163922.579000", "163922.582000", "163922.585000", "164002.529000", "164002.532000", "164002.535000", "164002.538000", "164002.541000", "164002.544000", "164002.546000", "164002.550000", "164002.552000", "164002.555000", "164002.558000", "164002.561000", "164002.564000", "164002.567000", "164002.570000", "164002.572000", "164002.580000", "164002.583000", "164002.587000", "164002.590000", "164042.530000", "164042.534000", "164042.536000", "164042.539000", "164042.542000", "164042.545000", "164042.548000", "164042.551000", "164042.554000", "164042.557000", "164042.560000", "164042.562000", "164042.565000", "164042.568000", "164042.571000", "164042.574000", "164042.577000", "164042.579000", "164042.582000", "164042.585000", "164122.529000", "164122.533000", "164122.536000", "164122.539000", "164122.541000", "164122.544000", "164122.547000", "164122.550000", "164122.553000", "164122.556000", "164122.559000", "164122.562000", "164122.565000", "164122.567000", "164122.570000", "164122.573000", "164122.576000", "164122.579000", "164122.582000", "164122.585000", "164202.529000", "164202.532000", "164202.535000", "164202.538000", "164202.541000", "164202.544000", "164202.547000", "164202.550000", "164202.553000", "164202.556000", "164202.559000", "164202.562000", "164202.565000", "164202.568000", "164202.571000", "164202.574000", "164202.576000", "164202.579000", "164202.582000", "164202.585000", "164242.530000", "164242.533000", "164242.536000", "164242.539000", "164242.542000", "164242.545000", "164242.548000", "164242.551000", "164242.554000", "164242.557000", "164242.560000", "164242.563000", "164242.565000", "164242.568000", "164242.571000", "164242.574000", "164242.577000", "164242.580000", "164242.582000", "164242.585000", "164322.529000", "164322.533000", "164322.535000", "164322.538000", "164322.541000", "164322.544000", "164322.547000", "164322.549000", "164322.553000", "164322.556000", "164322.558000", "164322.561000", "164322.564000", "164322.567000", "164322.570000", "164322.573000", "164322.576000", "164322.578000", "164322.581000", "164322.584000", "164402.529000", "164402.532000", "164402.535000", "164402.538000", "164402.540000", "164402.543000", "164402.546000", "164402.549000", "164402.552000", "164402.555000", "164402.557000", "164402.560000", "164402.563000", "164402.565000", "164402.568000", "164402.571000", "164402.574000", "164402.577000", "164402.580000", "164402.583000", "164442.529000", "164442.532000", "164442.535000", "164442.538000", "164442.540000", "164442.543000", "164442.546000", "164442.549000", "164442.552000", "164442.555000", "164442.557000", "164442.560000", "164442.563000", "164442.566000", "164442.569000", "164442.572000", "164442.574000", "164442.577000", "164442.580000", "164442.583000", "164502.273000", "164502.276000", "164502.279000", "164502.281000", "164502.284000", "164502.287000", "164502.290000", "164502.293000", "164502.296000", "164502.299000"],
      "InstanceNumber": [1, 2, 3, 4, 5, 6, 7, 8, 9, 10, 11, 12, 13, 14, 15, 16, 17, 18, 19, 20, 21, 22, 23, 24, 25, 26, 27, 28, 29, 30, 31, 32, 33, 34, 35, 36, 37, 38, 39, 40, 41, 42, 43, 44, 45, 46, 47, 48, 49, 50, 51, 52, 53, 54, 55, 56, 57, 58, 59, 60, 61, 62, 63, 64, 65, 66, 67, 68, 69, 70, 71, 72, 73, 74, 75, 76, 77, 78, 79, 80, 81, 82, 83, 84, 85, 86, 87, 88, 89, 90, 91, 92, 93, 94, 95, 96, 97, 98, 99, 100, 101, 102, 103, 104, 105, 106, 107, 108, 109, 110, 111, 112, 113, 114, 115, 116, 117, 118, 119, 120, 121, 122, 123, 124, 125, 126, 127, 128, 129, 130, 131, 132, 133, 134, 135, 136, 137, 138, 139, 140, 141, 142, 143, 144, 145, 146, 147, 148, 149, 150, 151, 152, 153, 154, 155, 156, 157, 158, 159, 160, 161, 162, 163, 164, 165, 166, 167, 168, 169, 170, 171, 172, 173, 174, 175, 176, 177, 178, 179, 180, 181, 182, 183, 184, 185, 186, 187, 188, 189, 190, 191, 192, 193, 194, 195, 196, 197, 198, 199, 200, 201, 202, 203, 204, 205, 206, 207, 208, 209, 210, 211, 212, 213, 214, 215, 216, 217, 218, 219, 220, 221, 222, 223, 224, 225, 226, 227, 228, 229, 230, 231, 232, 233, 234, 235, 236, 237, 238, 239, 240, 241, 242, 243, 244, 245, 246, 247, 248, 249, 250, 251, 252, 253, 254, 255, 256],
      "LargestImagePixelValue": [945, 1033, 977, 929, 923, 1155, 951, 1070, 977, 958, 1142, 1150, 925, 936, 955, 938, 1012, 1055, 921, 928, 925, 931, 932, 924, 921, 955, 917, 923, 981, 982, 922, 926, 935, 933, 1061, 975, 926, 954, 934, 1300, 1203, 1136, 920, 931, 927, 935, 935, 1050, 997, 971, 952, 993, 992, 1008, 1097, 937, 929, 940, 936, 1035, 927, 933, 971, 967, 1030, 961, 985, 1029, 983, 1133, 975, 927, 943, 916, 925, 924, 922, 977, 925, 912, 962, 935, 925, 957, 923, 926, 939, 923, 929, 932, 924, 1028, 934, 1005, 927, 929, 923, 925, 919, 931, 936, 926, 1218, 938, 1014, 930, 942, 1022, 931, 963, 991, 997, 941, 937, 937, 933, 1110, 989, 971, 957, 940, 947, 1018, 932, 927, 947, 978, 939, 933, 955, 952, 941, 929, 931, 923, 1127, 928, 928, 1127, 934, 915, 1036, 1098, 972, 927, 937, 970, 919, 935, 927, 936, 952, 933, 957, 940, 943, 945, 1089, 932, 942, 1101, 942, 940, 1087, 933, 1250, 931, 946, 945, 944, 1110, 1075, 941, 940, 931, 984, 945, 951, 935, 1167, 928, 941, 978, 1130, 953, 942, 1149, 924, 991, 935, 1009, 1221, 925, 928, 957, 931, 925, 992, 930, 960, 926, 937, 1172, 998, 942, 980, 978, 1200, 1203, 920, 926, 978, 1006, 953, 928, 1114, 1041, 979, 1104, 920, 930, 945, 953, 1036, 1093, 956, 947, 962, 955, 956, 1084, 952, 956, 956, 1003, 1012, 1060, 953, 958, 958, 945, 946, 953, 933, 1156, 1107, 935, 939, 943, 976, 971, 951, 977, 932, 1079, 955],
      "WindowCenter": [503.0, 505.0, 503.0, 500.0, 500.0, 503.0, 500.0, 502.0, 500.0, 501.0, 503.0, 503.0, 499.0, 500.0, 500.0, 500.0, 501.0, 501.0, 499.0, 499.0, 499.0, 500.0, 500.0, 500.0, 500.0, 500.0, 501.0, 500.0, 501.0, 500.0, 500.0, 499.0, 499.0, 500.0, 502.0, 501.0, 502.0, 502.0, 500.0, 503.0, 500.0, 497.0, 495.0, 496.0, 496.0, 497.0, 499.0, 503.0, 501.0, 501.0, 503.0, 502.0, 501.0, 500.0, 501.0, 498.0, 497.0, 498.0, 499.0, 500.0, 500.0, 500.0, 501.0, 500.0, 501.0, 500.0, 501.0, 502.0, 502.0, 502.0, 500.0, 500.0, 500.0, 500.0, 500.0, 500.0, 500.0, 500.0, 500.0, 500.0, 501.0, 500.0, 500.0, 501.0, 500.0, 500.0, 500.0, 500.0, 500.0, 500.0, 500.0, 501.0, 500.0, 501.0, 500.0, 499.0, 498.0, 499.0, 499.0, 499.0, 499.0, 500.0, 504.0, 501.0, 501.0, 500.0, 500.0, 501.0, 500.0, 501.0, 502.0, 501.0, 499.0, 499.0, 500.0, 500.0, 502.0, 501.0, 501.0, 500.0, 500.0, 499.0, 499.0, 497.0, 497.0, 497.0, 499.0, 499.0, 500.0, 500.0, 501.0, 500.0, 500.0, 500.0, 500.0, 502.0, 499.0, 500.0, 502.0, 500.0, 500.0, 501.0, 501.0, 500.0, 500.0, 500.0, 501.0, 500.0, 500.0, 499.0, 499.0, 499.0, 500.0, 501.0, 501.0, 501.0, 501.0, 502.0, 500.0, 500.0, 502.0, 500.0, 500.0, 501.0, 500.0, 503.0, 500.0, 500.0, 500.0, 499.0, 501.0, 501.0, 498.0, 499.0, 500.0, 500.0, 500.0, 500.0, 500.0, 503.0, 500.0, 500.0, 501.0, 502.0, 500.0, 500.0, 502.0, 499.0, 501.0, 501.0, 501.0, 502.0, 498.0, 500.0, 500.0, 498.0, 498.0, 498.0, 497.0, 498.0, 499.0, 499.0, 503.0, 502.0, 500.0, 499.0, 499.0, 501.0, 499.0, 495.0, 495.0, 496.0, 498.0, 499.0, 501.0, 504.0, 510.0, 504.0, 503.0, 500.0, 500.0, 501.0, 502.0, 502.0, 505.0, 504.0, 503.0, 502.0, 502.0, 501.0, 503.0, 502.0, 501.0, 501.0, 502.0, 502.0, 502.0, 500.0, 501.0, 501.0, 502.0, 502.0, 502.0, 501.0, 502.0, 499.0, 496.0, 497.0, 497.0, 498.0, 499.0, 499.0, 502.0, 502.0, 503.0, 501.0],
      "WindowWidth": [1048.0, 1052.0, 1046.0, 1041.0, 1041.0, 1047.0, 1042.0, 1044.0, 1042.0, 1043.0, 1046.0, 1046.0, 1040.0, 1041.0, 1042.0, 1042.0, 1043.0, 1043.0, 1040.0, 1039.0, 1040.0, 1041.0, 1041.0, 1041.0, 1041.0, 1042.0, 1043.0, 1042.0, 1043.0, 1042.0, 1041.0, 1040.0, 1040.0, 1042.0, 1045.0, 1044.0, 1045.0, 1046.0, 1042.0, 1045.0, 1040.0, 1035.0, 1031.0, 1033.0, 1035.0, 1037.0, 1039.0, 1048.0, 1043.0, 1044.0, 1046.0, 1044.0, 1044.0, 1041.0, 1042.0, 1038.0, 1037.0, 1038.0, 1039.0, 1041.0, 1041.0, 1042.0, 1042.0, 1042.0, 1043.0, 1041.0, 1044.0, 1045.0, 1044.0, 1044.0, 1041.0, 1041.0, 1042.0, 1042.0, 1042.0, 1042.0, 1041.0, 1041.0, 1041.0, 1042.0, 1043.0, 1042.0, 1042.0, 1043.0, 1042.0, 1041.0, 1041.0, 1041.0, 1041.0, 1041.0, 1041.0, 1044.0, 1042.0, 1044.0, 1041.0, 1040.0, 1038.0, 1040.0, 1040.0, 1040.0, 1040.0, 1042.0, 1047.0, 1043.0, 1044.0, 1042.0, 1042.0, 1044.0, 1042.0, 1043.0, 1046.0, 1043.0, 1040.0, 1040.0, 1041.0, 1041.0, 1044.0, 1044.0, 1043.0, 1041.0, 1041.0, 1040.0, 1039.0, 1036.0, 1035.0, 1037.0, 1039.0, 1040.0, 1041.0, 1042.0, 1043.0, 1042.0, 1041.0, 1041.0, 1041.0, 1045.0, 1040.0, 1041.0, 1045.0, 1042.0, 1042.0, 1043.0, 1043.0, 1040.0, 1042.0, 1041.0, 1044.0, 1041.0, 1041.0, 1040.0, 1040.0, 1040.0, 1041.0, 1043.0, 1043.0, 1044.0, 1043.0, 1044.0, 1042.0, 1042.0, 1044.0, 1041.0, 1041.0, 1043.0, 1041.0, 1046.0, 1041.0, 1042.0, 1041.0, 1040.0, 1042.0, 1043.0, 1039.0, 1039.0, 1041.0, 1041.0, 1041.0, 1042.0, 1041.0, 1046.0, 1042.0, 1042.0, 1043.0, 1044.0, 1040.0, 1040.0, 1044.0, 1040.0, 1044.0, 1043.0, 1043.0, 1045.0, 1039.0, 1042.0, 1041.0, 1038.0, 1037.0, 1037.0, 1036.0, 1038.0, 1039.0, 1040.0, 1046.0, 1045.0, 1043.0, 1040.0, 1039.0, 1043.0, 1038.0, 1031.0, 1031.0, 1035.0, 1037.0, 1041.0, 1044.0, 1048.0, 1063.0, 1048.0, 1045.0, 1041.0, 1042.0, 1043.0, 1044.0, 1045.0, 1050.0, 1049.0, 1047.0, 1044.0, 1044.0, 1044.0, 1046.0, 1044.0, 1044.0, 1044.0, 1044.0, 1044.0, 1044.0, 1042.0, 1043.0, 1043.0, 1045.0, 1045.0, 1045.0, 1042.0, 1044.0, 1039.0, 1034.0, 1035.0, 1035.0, 1037.0, 1039.0, 1040.0, 1045.0, 1045.0, 1047.0, 1043.0]
    },
    "slices": {}
  }
}