{
  "AcquisitionMatrixPE": 64,
  "AcquisitionNumber": 1,
  "AcquisitionTime": "10:23:42.222500",
  "BandwidthPerPixelPhaseEncode": 40.064,
  "BaseResolution": 64,
  "BodyPartExamined": "BRAIN",
  "ConsistencyInfo": "N4_VD13D_LATEST_20130810",
  "ConversionSoftware": "dcm2niix",
  "ConversionSoftwareVersion": "v1.0.20191031",
  "DerivedVendorReportedEchoSpacing": 0.000780002,
  "DeviceSerialNumber": "67007",
  "DwellTime": 5.3e-06,
  "EchoTime": 0.03,
  "EchoTrainLength": 31,
  "EffectiveEchoSpacing": 0.000390001,
  "FlipAngle": 75,
  "ImageOrientationPatientDICOM": [0.999077, 0.0208633, -0.0375509, -0.0226722, 0.99857, -0.0484084],
  "ImageType": [
    "ORIGINAL",
    "PRIMARY",
    "M",
    "ND",
    "NORM",
    "MOSAIC"
],
  "ImagingFrequency": 123.211,
  "InPlanePhaseEncodingDirectionDICOM": "ROW",
  "InstitutionAddress": "Perth_Drive_100_London_Ontario_CA_N6A_5K8",
  "InstitutionName": "Robarts-CFMM",
  "InstitutionalDepartmentName": "CFMM",
  "MRAcquisitionType": "2D",
  "MagneticFieldStrength": 3,
  "Manufacturer": "Siemens",
  "ManufacturersModelName": "Prisma_fit",
  "Modality": "MR",
  "ParallelReductionFactorInPlane": 2,
  "PartialFourier": 1,
  "PatientPosition": "HFS",
  "PercentPhaseFOV": 100,
  "PhaseEncodingDirection": "i",
  "PhaseEncodingSteps": 63,
  "PhaseResolution": 1,
  "PixelBandwidth": 1475,
  "ProcedureStepDescription": "Owen_Naci",
  "ProtocolName": "Resting_State",
  "PulseSequenceDetails": "%SiemensSeq%_ep2d_bold",
  "ReceiveCoilActiveElements": "HEA;HEP",
  "ReceiveCoilName": "Head_32",
  "ReconMatrixPE": 64,
  "RefLinesPE": 24,
  "RepetitionTime": 2,
  "SAR": 0.141895,
  "ScanOptions": "FS",
  "ScanningSequence": "EP",
  "SequenceName": "_epfid2d1_64",
  "SequenceVariant": "SK",
  "SeriesDescription": "Resting_State",
  "SeriesNumber": 11,
  "ShimSetting": [5235, -6122, -3911, 329, -8, 162, 111, -51],
  "SliceThickness": 3,
  "SliceTiming": [1.92, 1.86, 1.8, 1.74, 1.68, 1.62, 1.56, 1.5, 1.44, 1.38, 1.32, 1.26, 1.2, 1.14, 1.08, 1.02, 0.96, 0.9, 0.84, 0.78, 0.72, 0.66, 0.6, 0.54, 0.48, 0.42, 0.36, 0.3, 0.24, 0.18, 0.12, 0.06, 0],
  "SoftwareVersions": "syngo_MR_D13D",
  "SpacingBetweenSlices": 3.75,
  "StationName": "AWP67007",
  "TaskName": "rest",
  "TotalReadoutTime": 0.0245701,
  "TxRefAmp": 280.503,
  "dcmmeta_affine": [
    [-2.9972307682037354, -0.06801667809486389, -0.13682721555233002, 102.08744049072266],
    [-0.06259004771709442, 2.995710849761963, -0.18455646932125092, -69.05018615722656],
    [-0.11265271157026291, 0.1452251374721527, 3.7429556846618652, -32.62803268432617],
    [0.0, 0.0, 0.0, 1.0]
],
  "dcmmeta_reorient_transform": [
    [0.0, -1.0, 0.0, 63.0],
    [1.0, 0.0, 0.0, 0.0],
    [0.0, 0.0, 1.0, 0.0],
    [0.0, 0.0, 0.0, 1.0]
],
  "dcmmeta_shape": [64, 64, 33, 256],
  "dcmmeta_slice_dim": 2,
  "dcmmeta_version": 0.6,
  "global": {
    "const": {
      "AcquisitionMatrix": [0, 64, 64, 0],
      "AngioFlag": "N",
      "BitsAllocated": 16,
      "BitsStored": 12,
      "BodyPartExamined": "BRAIN",
      "Columns": 384,
      "EchoNumbers": 1,
      "EchoTime": 30.0,
      "EchoTrainLength": 31,
      "FlipAngle": 75.0,
      "HighBit": 11,
      "ImageOrientationPatient": [0.99907689905768, 0.02086334823819, -0.0375509050435, -0.0226722267163, 0.99857027732858, -0.0484083812128],
      "ImagePositionPatient": [-566.4766314374, -609.00773698491, 17.781609018516],
      "ImageType": [
        "ORIGINAL",
        "PRIMARY",
        "M",
        "ND",
        "NORM",
        "MOSAIC"
],
      "ImagedNucleus": "1H",
      "ImagingFrequency": 123.211107,
      "InPlanePhaseEncodingDirection": "ROW",
      "MRAcquisitionType": "2D",
      "MagneticFieldStrength": 3.0,
      "Manufacturer": "SIEMENS",
      "ManufacturerModelName": "Prisma_fit",
      "Modality": "MR",
      "NumberOfAverages": 1.0,
      "NumberOfPhaseEncodingSteps": 63,
      "PercentPhaseFieldOfView": 100.0,
      "PercentSampling": 100.0,
      "PerformedProcedureStepStartTime": "093249.620000",
      "PhotometricInterpretation": "MONOCHROME2",
      "PixelBandwidth": 1475.0,
      "PixelRepresentation": 0,
      "PixelSpacing": [3.0, 3.0],
      "ProtocolName": "Resting State",
      "RepetitionTime": 2000.0,
      "Rows": 384,
      "SAR": 0.14189463483313,
      "SamplesPerPixel": 1,
      "ScanOptions": "FS",
      "ScanningSequence": "EP",
      "SequenceName": "*epfid2d1_64",
      "SequenceVariant": "SK",
      "SeriesDescription": "Resting State",
      "SeriesNumber": 11,
      "SeriesTime": "102357.106000",
      "SliceLocation": -32.893322877554,
      "SliceThickness": 3.0,
      "SmallestImagePixelValue": 0,
      "SoftwareVersions": "syngo MR D13D",
      "SpacingBetweenSlices": 3.7499999460954,
      "SpecificCharacterSet": "ISO_IR 100",
      "StudyID": "1",
      "StudyTime": "093249.503000",
      "TimeOfLastCalibration": ["123723.000000", "123723.000000"],
      "TransmitCoilName": "Body",
      "VariableFlipAngleFlag": "N",
      "WindowCenterWidthExplanation": "Algo1",
      "dBdt": 0.0},
    "slices": {}
  },
  "time": {
    "samples": {
      "AcquisitionNumber": [1, 2, 3, 4, 5, 6, 7, 8, 9, 10, 11, 12, 13, 14, 15, 16, 17, 18, 19, 20, 21, 22, 23, 24, 25, 26, 27, 28, 29, 30, 31, 32, 33, 34, 35, 36, 37, 38, 39, 40, 41, 42, 43, 44, 45, 46, 47, 48, 49, 50, 51, 52, 53, 54, 55, 56, 57, 58, 59, 60, 61, 62, 63, 64, 65, 66, 67, 68, 69, 70, 71, 72, 73, 74, 75, 76, 77, 78, 79, 80, 81, 82, 83, 84, 85, 86, 87, 88, 89, 90, 91, 92, 93, 94, 95, 96, 97, 98, 99, 100, 101, 102, 103, 104, 105, 106, 107, 108, 109, 110, 111, 112, 113, 114, 115, 116, 117, 118, 119, 120, 121, 122, 123, 124, 125, 126, 127, 128, 129, 130, 131, 132, 133, 134, 135, 136, 137, 138, 139, 140, 141, 142, 143, 144, 145, 146, 147, 148, 149, 150, 151, 152, 153, 154, 155, 156, 157, 158, 159, 160, 161, 162, 163, 164, 165, 166, 167, 168, 169, 170, 171, 172, 173, 174, 175, 176, 177, 178, 179, 180, 181, 182, 183, 184, 185, 186, 187, 188, 189, 190, 191, 192, 193, 194, 195, 196, 197, 198, 199, 200, 201, 202, 203, 204, 205, 206, 207, 208, 209, 210, 211, 212, 213, 214, 215, 216, 217, 218, 219, 220, 221, 222, 223, 224, 225, 226, 227, 228, 229, 230, 231, 232, 233, 234, 235, 236, 237, 238, 239, 240, 241, 242, 243, 244, 245, 246, 247, 248, 249, 250, 251, 252, 253, 254, 255, 256],
      "AcquisitionTime": ["102342.222500", "102344.222500", "102346.222500", "102348.222500", "102350.222500", "102352.222500", "102354.222500", "102356.222500", "102358.222500", "102400.222500", "102402.222500", "102404.222500", "102406.222500", "102408.222500", "102410.222500", "102412.222500", "102414.222500", "102416.222500", "102418.222500", "102420.222500", "102422.222500", "102424.222500", "102426.222500", "102428.222500", "102430.222500", "102432.222500", "102434.222500", "102436.222500", "102438.222500", "102440.222500", "102442.222500", "102444.222500", "102446.222500", "102448.222500", "102450.222500", "102452.222500", "102454.222500", "102456.222500", "102458.222500", "102500.222500", "102502.222500", "102504.222500", "102506.222500", "102508.222500", "102510.222500", "102512.222500", "102514.222500", "102516.222500", "102518.222500", "102520.222500", "102522.222500", "102524.222500", "102526.222500", "102528.222500", "102530.222500", "102532.222500", "102534.222500", "102536.222500", "102538.222500", "102540.222500", "102542.222500", "102544.222500", "102546.222500", "102548.222500", "102550.222500", "102552.222500", "102554.222500", "102556.222500", "102558.222500", "102600.222500", "102602.222500", "102604.222500", "102606.222500", "102608.222500", "102610.222500", "102612.222500", "102614.222500", "102616.222500", "102618.222500", "102620.222500", "102622.222500", "102624.222500", "102626.222500", "102628.222500", "102630.222500", "102632.222500", "102634.222500", "102636.222500", "102638.222500", "102640.222500", "102642.222500", "102644.222500", "102646.222500", "102648.222500", "102650.222500", "102652.222500", "102654.222500", "102656.222500", "102658.222500", "102700.222500", "102702.222500", "102704.222500", "102706.222500", "102708.222500", "102710.222500", "102712.222500", "102714.222500", "102716.222500", "102718.222500", "102720.222500", "102722.222500", "102724.222500", "102726.222500", "102728.222500", "102730.222500", "102732.222500", "102734.222500", "102736.222500", "102738.222500", "102740.222500", "102742.222500", "102744.222500", "102746.222500", "102748.222500", "102750.222500", "102752.222500", "102754.222500", "102756.222500", "102758.222500", "102800.222500", "102802.222500", "102804.222500", "102806.222500", "102808.222500", "102810.222500", "102812.222500", "102814.222500", "102816.222500", "102818.222500", "102820.222500", "102822.222500", "102824.222500", "102826.222500", "102828.222500", "102830.222500", "102832.222500", "102834.222500", "102836.222500", "102838.222500", "102840.222500", "102842.222500", "102844.222500", "102846.222500", "102848.222500", "102850.222500", "102852.222500", "102854.222500", "102856.222500", "102858.222500", "102900.222500", "102902.222500", "102904.222500", "102906.222500", "102908.222500", "102910.222500", "102912.222500", "102914.222500", "102916.222500", "102918.222500", "102920.222500", "102922.222500", "102924.222500", "102926.222500", "102928.222500", "102930.222500", "102932.222500", "102934.222500", "102936.222500", "102938.222500", "102940.222500", "102942.222500", "102944.222500", "102946.222500", "102948.222500", "102950.222500", "102952.222500", "102954.222500", "102956.222500", "102958.222500", "103000.222500", "103002.222500", "103004.222500", "103006.222500", "103008.222500", "103010.222500", "103012.222500", "103014.222500", "103016.222500", "103018.222500", "103020.222500", "103022.222500", "103024.222500", "103026.222500", "103028.222500", "103030.222500", "103032.222500", "103034.222500", "103036.222500", "103038.222500", "103040.222500", "103042.222500", "103044.222500", "103046.222500", "103048.222500", "103050.222500", "103052.222500", "103054.222500", "103056.222500", "103058.222500", "103100.222500", "103102.222500", "103104.222500", "103106.222500", "103108.222500", "103110.222500", "103112.222500", "103114.222500", "103116.222500", "103118.222500", "103120.222500", "103122.222500", "103124.222500", "103126.222500", "103128.222500", "103130.222500", "103132.222500", "103134.222500", "103136.222500", "103138.222500", "103140.222500", "103142.222500", "103144.222500", "103146.222500", "103148.222500", "103150.225000", "103152.225000", "103154.225000", "103156.225000", "103158.225000", "103200.225000", "103202.225000", "103204.225000", "103206.225000", "103208.225000", "103210.225000", "103212.225000"],
      "ContentTime": ["102357.111000", "102357.115000", "102357.118000", "102357.121000", "102357.124000", "102357.127000", "102437.091000", "102437.094000", "102437.097000", "102437.100000", "102437.103000", "102437.106000", "102437.108000", "102437.111000", "102437.114000", "102437.117000", "102437.120000", "102437.123000", "102437.126000", "102437.129000", "102437.138000", "102437.141000", "102437.144000", "102437.147000", "102437.150000", "102437.153000", "102517.089000", "102517.093000", "102517.096000", "102517.098000", "102517.101000", "102517.104000", "102517.107000", "102517.110000", "102517.113000", "102517.116000", "102517.119000", "102517.121000", "102517.124000", "102517.127000", "102517.130000", "102517.132000", "102517.135000", "102517.138000", "102517.141000", "102517.144000", "102557.090000", "102557.106000", "102557.114000", "102557.117000", "102557.120000", "102557.122000", "102557.126000", "102557.129000", "102557.132000", "102557.135000", "102557.138000", "102557.140000", "102557.143000", "102557.145000", "102557.148000", "102557.151000", "102557.154000", "102557.157000", "102557.160000", "102557.163000", "102637.091000", "102637.094000", "102637.097000", "102637.100000", "102637.103000", "102637.105000", "102637.108000", "102637.111000", "102637.114000", "102637.116000", "102637.119000", "102637.122000", "102637.125000", "102637.128000", "102637.131000", "102637.134000", "102637.137000", "102637.139000", "102637.142000", "102637.145000", "102717.089000", "102717.092000", "102717.095000", "102717.098000", "102717.101000", "102717.104000", "102717.107000", "102717.110000", "102717.112000", "102717.115000", "102717.118000", "102717.121000", "102717.124000", "102717.127000", "102717.131000", "102717.134000", "102717.136000", "102717.139000", "102717.142000", "102717.145000", "102757.092000", "102757.096000", "102757.099000", "102757.102000", "102757.104000", "102757.107000", "102757.110000", "102757.113000", "102757.116000", "102757.119000", "102757.122000", "102757.125000", "102757.128000", "102757.131000", "102757.134000", "102757.136000", "102757.139000", "102757.142000", "102757.145000", "102757.148000", "102837.091000", "102837.094000", "102837.098000", "102837.101000", "102837.103000", "102837.106000", "102837.109000", "102837.112000", "102837.114000", "102837.117000", "102837.120000", "102837.123000", "102837.126000", "102837.128000", "102837.131000", "102837.134000", "102837.137000", "102837.140000", "102837.143000", "102837.146000", "102917.090000", "102917.093000", "102917.096000", "102917.099000", "102917.102000", "102917.104000", "102917.108000", "102917.115000", "102917.118000", "102917.121000", "102917.124000", "102917.127000", "102917.130000", "102917.133000", "102917.136000", "102917.138000", "102917.141000", "102917.144000", "102917.147000", "102917.150000", "102957.090000", "102957.093000", "102957.096000", "102957.099000", "102957.102000", "102957.105000", "102957.108000", "102957.111000", "102957.114000", "102957.117000", "102957.119000", "102957.122000", "102957.125000", "102957.128000", "102957.131000", "102957.134000", "102957.136000", "102957.139000", "102957.142000", "102957.145000", "103037.092000", "103037.095000", "103037.098000", "103037.101000", "103037.104000", "103037.106000", "103037.109000", "103037.112000", "103037.115000", "103037.118000", "103037.121000", "103037.123000", "103037.126000", "103037.129000", "103037.132000", "103037.135000", "103037.138000", "103037.140000", "103037.143000", "103037.146000", "103117.092000", "103117.095000", "103117.098000", "103117.101000", "103117.104000", "103117.107000", "103117.110000", "103117.113000", "103117.115000", "103117.118000", "103117.121000", "103117.124000", "103117.127000", "103117.130000", "103117.133000", "103117.136000", "103117.139000", "103117.142000", "103117.145000", "103117.147000", "103157.091000", "103157.095000", "103157.098000", "103157.100000", "103157.103000", "103157.107000", "103157.110000", "103157.113000", "103157.116000", "103157.119000", "103157.121000", "103157.124000", "103157.127000", "103157.130000", "103157.133000", "103157.136000", "103157.139000", "103157.142000", "103157.145000", "103157.147000", "103215.660000", "103215.663000", "103215.667000", "103215.670000", "103215.675000", "103215.679000", "103215.682000", "103215.685000", "103215.688000", "103215.692000"],
      "InstanceCreationTime": ["102357.111000", "102357.115000", "102357.118000", "102357.121000", "102357.124000", "102357.127000", "102437.091000", "102437.094000", "102437.097000", "102437.100000", "102437.103000", "102437.106000", "102437.108000", "102437.111000", "102437.114000", "102437.117000", "102437.120000", "102437.123000", "102437.126000", "102437.129000", "102437.138000", "102437.141000", "102437.144000", "102437.147000", "102437.150000", "102437.153000", "102517.089000", "102517.093000", "102517.096000", "102517.098000", "102517.101000", "102517.104000", "102517.107000", "102517.110000", "102517.113000", "102517.116000", "102517.119000", "102517.121000", "102517.124000", "102517.127000", "102517.130000", "102517.132000", "102517.135000", "102517.138000", "102517.141000", "102517.144000", "102557.090000", "102557.106000", "102557.114000", "102557.117000", "102557.120000", "102557.122000", "102557.126000", "102557.129000", "102557.132000", "102557.135000", "102557.138000", "102557.140000", "102557.143000", "102557.145000", "102557.148000", "102557.151000", "102557.154000", "102557.157000", "102557.160000", "102557.163000", "102637.091000", "102637.094000", "102637.097000", "102637.100000", "102637.103000", "102637.105000", "102637.108000", "102637.111000", "102637.114000", "102637.116000", "102637.119000", "102637.122000", "102637.125000", "102637.128000", "102637.131000", "102637.134000", "102637.137000", "102637.139000", "102637.142000", "102637.145000", "102717.089000", "102717.092000", "102717.095000", "102717.098000", "102717.101000", "102717.104000", "102717.107000", "102717.110000", "102717.112000", "102717.115000", "102717.118000", "102717.121000", "102717.124000", "102717.127000", "102717.131000", "102717.134000", "102717.136000", "102717.139000", "102717.142000", "102717.145000", "102757.092000", "102757.096000", "102757.099000", "102757.102000", "102757.104000", "102757.107000", "102757.110000", "102757.113000", "102757.116000", "102757.119000", "102757.122000", "102757.125000", "102757.128000", "102757.131000", "102757.134000", "102757.136000", "102757.139000", "102757.142000", "102757.145000", "102757.148000", "102837.091000", "102837.094000", "102837.098000", "102837.101000", "102837.103000", "102837.106000", "102837.109000", "102837.112000", "102837.114000", "102837.117000", "102837.120000", "102837.123000", "102837.126000", "102837.128000", "102837.131000", "102837.134000", "102837.137000", "102837.140000", "102837.143000", "102837.146000", "102917.090000", "102917.093000", "102917.096000", "102917.099000", "102917.102000", "102917.104000", "102917.108000", "102917.115000", "102917.118000", "102917.121000", "102917.124000", "102917.127000", "102917.130000", "102917.133000", "102917.136000", "102917.138000", "102917.141000", "102917.144000", "102917.147000", "102917.150000", "102957.090000", "102957.093000", "102957.096000", "102957.099000", "102957.102000", "102957.105000", "102957.108000", "102957.111000", "102957.114000", "102957.117000", "102957.119000", "102957.122000", "102957.125000", "102957.128000", "102957.131000", "102957.134000", "102957.136000", "102957.139000", "102957.142000", "102957.145000", "103037.092000", "103037.095000", "103037.098000", "103037.101000", "103037.104000", "103037.106000", "103037.109000", "103037.112000", "103037.115000", "103037.118000", "103037.121000", "103037.123000", "103037.126000", "103037.129000", "103037.132000", "103037.135000", "103037.138000", "103037.140000", "103037.143000", "103037.146000", "103117.092000", "103117.095000", "103117.098000", "103117.101000", "103117.104000", "103117.107000", "103117.110000", "103117.113000", "103117.115000", "103117.118000", "103117.121000", "103117.124000", "103117.127000", "103117.130000", "103117.133000", "103117.136000", "103117.139000", "103117.142000", "103117.145000", "103117.147000", "103157.091000", "103157.095000", "103157.098000", "103157.100000", "103157.103000", "103157.107000", "103157.110000", "103157.113000", "103157.116000", "103157.119000", "103157.121000", "103157.124000", "103157.127000", "103157.130000", "103157.133000", "103157.136000", "103157.139000", "103157.142000", "103157.145000", "103157.147000", "103215.660000", "103215.663000", "103215.667000", "103215.670000", "103215.675000", "103215.679000", "103215.682000", "103215.685000", "103215.688000", "103215.692000"],
      "InstanceNumber": [1, 2, 3, 4, 5, 6, 7, 8, 9, 10, 11, 12, 13, 14, 15, 16, 17, 18, 19, 20, 21, 22, 23, 24, 25, 26, 27, 28, 29, 30, 31, 32, 33, 34, 35, 36, 37, 38, 39, 40, 41, 42, 43, 44, 45, 46, 47, 48, 49, 50, 51, 52, 53, 54, 55, 56, 57, 58, 59, 60, 61, 62, 63, 64, 65, 66, 67, 68, 69, 70, 71, 72, 73, 74, 75, 76, 77, 78, 79, 80, 81, 82, 83, 84, 85, 86, 87, 88, 89, 90, 91, 92, 93, 94, 95, 96, 97, 98, 99, 100, 101, 102, 103, 104, 105, 106, 107, 108, 109, 110, 111, 112, 113, 114, 115, 116, 117, 118, 119, 120, 121, 122, 123, 124, 125, 126, 127, 128, 129, 130, 131, 132, 133, 134, 135, 136, 137, 138, 139, 140, 141, 142, 143, 144, 145, 146, 147, 148, 149, 150, 151, 152, 153, 154, 155, 156, 157, 158, 159, 160, 161, 162, 163, 164, 165, 166, 167, 168, 169, 170, 171, 172, 173, 174, 175, 176, 177, 178, 179, 180, 181, 182, 183, 184, 185, 186, 187, 188, 189, 190, 191, 192, 193, 194, 195, 196, 197, 198, 199, 200, 201, 202, 203, 204, 205, 206, 207, 208, 209, 210, 211, 212, 213, 214, 215, 216, 217, 218, 219, 220, 221, 222, 223, 224, 225, 226, 227, 228, 229, 230, 231, 232, 233, 234, 235, 236, 237, 238, 239, 240, 241, 242, 243, 244, 245, 246, 247, 248, 249, 250, 251, 252, 253, 254, 255, 256],
      "LargestImagePixelValue": [817, 882, 859, 999, 900, 876, 862, 802, 820, 962, 903, 760, 935, 942, 894, 1169, 989, 945, 1057, 1011, 975, 954, 859, 893, 903, 984, 868, 946, 999, 1074, 1118, 817, 931, 1018, 1029, 804, 799, 832, 857, 811, 830, 861, 824, 806, 865, 896, 972, 866, 875, 872, 921, 916, 846, 843, 764, 834, 967, 891, 871, 1051, 1128, 1091, 1145, 946, 1110, 857, 870, 1071, 793, 982, 1092, 1124, 994, 870, 890, 849, 812, 873, 858, 963, 851, 829, 815, 848, 831, 903, 849, 758, 871, 791, 1047, 1003, 1123, 961, 1102, 1078, 833, 1013, 851, 840, 896, 811, 791, 799, 836, 788, 855, 909, 822, 770, 758, 849, 839, 825, 838, 912, 1024, 1008, 896, 949, 881, 830, 763, 777, 911, 849, 782, 860, 984, 1077, 1013, 996, 968, 1043, 1112, 991, 1115, 877, 816, 1096, 1148, 1067, 1076, 903, 1013, 1096, 800, 801, 1009, 852, 879, 937, 1009, 1040, 914, 852, 1015, 846, 787, 794, 925, 868, 834, 841, 830, 945, 892, 977, 917, 811, 864, 860, 986, 821, 931, 984, 872, 825, 837, 789, 796, 783, 919, 900, 796, 931, 823, 810, 804, 850, 836, 882, 851, 883, 872, 863, 797, 1058, 907, 1121, 1099, 953, 1138, 893, 796, 763, 777, 776, 837, 844, 767, 792, 1081, 970, 1077, 892, 1065, 999, 914, 1073, 1033, 1099, 825, 782, 815, 774, 822, 775, 780, 866, 787, 793, 827, 902, 848, 922, 970, 1066, 1075, 1070, 1086, 885, 851, 873, 776, 868, 857, 896, 1069, 1041, 1103, 949, 884, 978, 801, 1053],
      "WindowCenter": [430.0, 427.0, 425.0, 427.0, 427.0, 427.0, 426.0, 425.0, 426.0, 429.0, 427.0, 424.0, 430.0, 437.0, 434.0, 434.0, 428.0, 432.0, 429.0, 424.0, 422.0, 422.0, 422.0, 423.0, 426.0, 431.0, 434.0, 430.0, 425.0, 422.0, 421.0, 419.0, 422.0, 424.0, 426.0, 424.0, 424.0, 426.0, 428.0, 426.0, 425.0, 427.0, 427.0, 429.0, 428.0, 429.0, 431.0, 430.0, 428.0, 427.0, 427.0, 426.0, 425.0, 425.0, 424.0, 426.0, 427.0, 428.0, 435.0, 433.0, 431.0, 426.0, 424.0, 422.0, 421.0, 421.0, 425.0, 426.0, 424.0, 425.0, 425.0, 426.0, 424.0, 426.0, 424.0, 424.0, 424.0, 425.0, 427.0, 428.0, 427.0, 425.0, 425.0, 426.0, 426.0, 426.0, 425.0, 425.0, 426.0, 426.0, 435.0, 432.0, 429.0, 426.0, 426.0, 426.0, 423.0, 423.0, 421.0, 422.0, 421.0, 420.0, 420.0, 422.0, 423.0, 425.0, 425.0, 424.0, 423.0, 423.0, 424.0, 425.0, 424.0, 424.0, 429.0, 430.0, 436.0, 430.0, 423.0, 421.0, 420.0, 420.0, 420.0, 421.0, 423.0, 422.0, 424.0, 436.0, 430.0, 427.0, 427.0, 423.0, 425.0, 425.0, 425.0, 423.0, 425.0, 430.0, 428.0, 429.0, 427.0, 424.0, 422.0, 420.0, 422.0, 423.0, 423.0, 423.0, 427.0, 427.0, 427.0, 427.0, 426.0, 425.0, 426.0, 425.0, 428.0, 428.0, 422.0, 425.0, 427.0, 425.0, 424.0, 426.0, 430.0, 431.0, 429.0, 429.0, 426.0, 423.0, 424.0, 425.0, 430.0, 429.0, 429.0, 428.0, 425.0, 422.0, 424.0, 421.0, 422.0, 423.0, 427.0, 425.0, 425.0, 428.0, 426.0, 425.0, 425.0, 426.0, 427.0, 428.0, 429.0, 428.0, 428.0, 426.0, 425.0, 433.0, 433.0, 434.0, 430.0, 426.0, 426.0, 424.0, 425.0, 421.0, 422.0, 424.0, 426.0, 424.0, 423.0, 426.0, 434.0, 436.0, 428.0, 427.0, 426.0, 423.0, 426.0, 426.0, 422.0, 423.0, 420.0, 421.0, 421.0, 422.0, 424.0, 423.0, 424.0, 425.0, 425.0, 426.0, 426.0, 427.0, 427.0, 440.0, 429.0, 429.0, 425.0, 424.0, 426.0, 423.0, 424.0, 421.0, 422.0, 429.0, 430.0, 433.0, 428.0, 424.0, 424.0, 421.0, 420.0, 424.0, 424.0, 424.0],
      "WindowWidth": [909.0, 902.0, 898.0, 902.0, 902.0, 902.0, 900.0, 898.0, 900.0, 904.0, 901.0, 897.0, 908.0, 923.0, 916.0, 915.0, 903.0, 913.0, 906.0, 895.0, 891.0, 893.0, 892.0, 895.0, 899.0, 909.0, 918.0, 907.0, 897.0, 891.0, 890.0, 886.0, 891.0, 896.0, 899.0, 896.0, 897.0, 901.0, 903.0, 900.0, 899.0, 902.0, 902.0, 906.0, 904.0, 905.0, 909.0, 907.0, 904.0, 901.0, 901.0, 899.0, 899.0, 897.0, 897.0, 900.0, 902.0, 905.0, 919.0, 913.0, 908.0, 898.0, 896.0, 891.0, 889.0, 891.0, 899.0, 900.0, 896.0, 897.0, 897.0, 898.0, 896.0, 899.0, 896.0, 895.0, 896.0, 898.0, 902.0, 903.0, 902.0, 899.0, 899.0, 900.0, 900.0, 900.0, 899.0, 898.0, 900.0, 899.0, 917.0, 912.0, 903.0, 899.0, 899.0, 899.0, 895.0, 894.0, 891.0, 891.0, 891.0, 889.0, 889.0, 892.0, 894.0, 899.0, 898.0, 897.0, 895.0, 895.0, 897.0, 898.0, 896.0, 896.0, 907.0, 907.0, 920.0, 907.0, 893.0, 890.0, 888.0, 888.0, 890.0, 891.0, 894.0, 893.0, 897.0, 920.0, 907.0, 900.0, 902.0, 893.0, 898.0, 897.0, 897.0, 894.0, 897.0, 908.0, 906.0, 904.0, 902.0, 895.0, 891.0, 889.0, 892.0, 893.0, 894.0, 895.0, 900.0, 901.0, 901.0, 902.0, 899.0, 898.0, 899.0, 898.0, 904.0, 905.0, 892.0, 897.0, 901.0, 897.0, 896.0, 900.0, 910.0, 909.0, 906.0, 905.0, 900.0, 894.0, 896.0, 898.0, 909.0, 906.0, 905.0, 904.0, 899.0, 893.0, 897.0, 891.0, 893.0, 895.0, 901.0, 898.0, 898.0, 903.0, 900.0, 899.0, 899.0, 900.0, 903.0, 905.0, 906.0, 903.0, 903.0, 899.0, 899.0, 912.0, 915.0, 916.0, 907.0, 898.0, 898.0, 895.0, 899.0, 891.0, 892.0, 896.0, 899.0, 897.0, 895.0, 901.0, 916.0, 920.0, 903.0, 901.0, 899.0, 893.0, 900.0, 898.0, 892.0, 893.0, 888.0, 891.0, 891.0, 893.0, 896.0, 895.0, 896.0, 898.0, 898.0, 900.0, 900.0, 901.0, 902.0, 928.0, 905.0, 904.0, 897.0, 896.0, 899.0, 895.0, 896.0, 891.0, 894.0, 906.0, 908.0, 914.0, 904.0, 895.0, 895.0, 890.0, 888.0, 895.0, 897.0, 896.0]
    },
    "slices": {}
  }
}