{
  "AcquisitionMatrixPE": 64,
  "AcquisitionNumber": 1,
  "AcquisitionTime": "10:17:54.922500",
  "BandwidthPerPixelPhaseEncode": 40.064,
  "BaseResolution": 64,
  "BodyPartExamined": "BRAIN",
  "ConsistencyInfo": "N4_VD13D_LATEST_20130810",
  "ConversionSoftware": "dcm2niix",
  "ConversionSoftwareVersion": "v1.0.20191031",
  "DerivedVendorReportedEchoSpacing": 0.000780002,
  "DeviceSerialNumber": "67007",
  "DwellTime": 5.3e-06,
  "EchoTime": 0.03,
  "EchoTrainLength": 31,
  "EffectiveEchoSpacing": 0.000390001,
  "FlipAngle": 75,
  "ImageOrientationPatientDICOM": [0.999077, 0.0208633, -0.0375509, -0.0226722, 0.99857, -0.0484084],
  "ImageType": [
    "ORIGINAL",
    "PRIMARY",
    "M",
    "ND",
    "NORM",
    "MOSAIC"
],
  "ImagingFrequency": 123.211,
  "InPlanePhaseEncodingDirectionDICOM": "ROW",
  "InstitutionAddress": "Perth_Drive_100_London_Ontario_CA_N6A_5K8",
  "InstitutionName": "Robarts-CFMM",
  "InstitutionalDepartmentName": "CFMM",
  "MRAcquisitionType": "2D",
  "MagneticFieldStrength": 3,
  "Manufacturer": "Siemens",
  "ManufacturersModelName": "Prisma_fit",
  "Modality": "MR",
  "ParallelReductionFactorInPlane": 2,
  "PartialFourier": 1,
  "PatientPosition": "HFS",
  "PercentPhaseFOV": 100,
  "PhaseEncodingDirection": "i",
  "PhaseEncodingSteps": 63,
  "PhaseResolution": 1,
  "PixelBandwidth": 1475,
  "ProcedureStepDescription": "Owen_Naci",
  "ProtocolName": "taken",
  "PulseSequenceDetails": "%SiemensSeq%_ep2d_bold",
  "ReceiveCoilActiveElements": "HEA;HEP",
  "ReceiveCoilName": "Head_32",
  "ReconMatrixPE": 64,
  "RefLinesPE": 24,
  "RepetitionTime": 2,
  "SAR": 0.141631,
  "ScanOptions": "FS",
  "ScanningSequence": "EP",
  "SequenceName": "_epfid2d1_64",
  "SequenceVariant": "SK",
  "SeriesDescription": "taken",
  "SeriesNumber": 9,
  "ShimSetting": [5235, -6122, -3911, 329, -8, 162, 111, -51],
  "SliceThickness": 3,
  "SliceTiming": [1.9175, 1.8575, 1.7975, 1.7375, 1.6775, 1.6175, 1.5575, 1.4975, 1.4375, 1.3775, 1.3175, 1.2575, 1.1975, 1.1375, 1.0775, 1.0175, 0.9575, 0.8975, 0.8375, 0.7775, 0.7175, 0.6575, 0.5975, 0.5375, 0.4775, 0.4175, 0.3575, 0.2975, 0.2375, 0.18, 0.12, 0.06, 0],
  "SoftwareVersions": "syngo_MR_D13D",
  "SpacingBetweenSlices": 3.75,
  "StationName": "AWP67007",
  "TaskName": "audio",
  "TotalReadoutTime": 0.0245701,
  "TxRefAmp": 280.503,
  "dcmmeta_affine": [
    [-2.9972307682037354, -0.06801667809486389, -0.13682721555233002, 102.08744049072266],
    [-0.06259004771709442, 2.995710849761963, -0.18455646932125092, -69.05018615722656],
    [-0.11265271157026291, 0.1452251374721527, 3.7429556846618652, -32.62803268432617],
    [0.0, 0.0, 0.0, 1.0]
],
  "dcmmeta_reorient_transform": [
    [0.0, -1.0, 0.0, 63.0],
    [1.0, 0.0, 0.0, 0.0],
    [0.0, 0.0, 1.0, 0.0],
    [0.0, 0.0, 0.0, 1.0]
],
  "dcmmeta_shape": [64, 64, 33, 155],
  "dcmmeta_slice_dim": 2,
  "dcmmeta_version": 0.6,
  "global": {
    "const": {
      "AcquisitionMatrix": [0, 64, 64, 0],
      "AngioFlag": "N",
      "BitsAllocated": 16,
      "BitsStored": 12,
      "BodyPartExamined": "BRAIN",
      "Columns": 384,
      "EchoNumbers": 1,
      "EchoTime": 30.0,
      "EchoTrainLength": 31,
      "FlipAngle": 75.0,
      "HighBit": 11,
      "ImageOrientationPatient": [0.99907689905768, 0.02086334823819, -0.0375509050435, -0.0226722267163, 0.99857027732858, -0.0484083812128],
      "ImagePositionPatient": [-566.4766314374, -609.00773698491, 17.781609018516],
      "ImageType": [
        "ORIGINAL",
        "PRIMARY",
        "M",
        "ND",
        "NORM",
        "MOSAIC"
],
      "ImagedNucleus": "1H",
      "ImagingFrequency": 123.211102,
      "InPlanePhaseEncodingDirection": "ROW",
      "MRAcquisitionType": "2D",
      "MagneticFieldStrength": 3.0,
      "Manufacturer": "SIEMENS",
      "ManufacturerModelName": "Prisma_fit",
      "Modality": "MR",
      "NumberOfAverages": 1.0,
      "NumberOfPhaseEncodingSteps": 63,
      "PercentPhaseFieldOfView": 100.0,
      "PercentSampling": 100.0,
      "PerformedProcedureStepStartTime": "093249.620000",
      "PhotometricInterpretation": "MONOCHROME2",
      "PixelBandwidth": 1475.0,
      "PixelRepresentation": 0,
      "PixelSpacing": [3.0, 3.0],
      "ProtocolName": "taken",
      "RepetitionTime": 2000.0,
      "Rows": 384,
      "SAR": 0.14163147387896,
      "SamplesPerPixel": 1,
      "ScanOptions": "FS",
      "ScanningSequence": "EP",
      "SequenceName": "*epfid2d1_64",
      "SequenceVariant": "SK",
      "SeriesDescription": "taken",
      "SeriesNumber": 9,
      "SeriesTime": "101838.274000",
      "SliceLocation": -32.893322877554,
      "SliceThickness": 3.0,
      "SmallestImagePixelValue": 0,
      "SoftwareVersions": "syngo MR D13D",
      "SpacingBetweenSlices": 3.7499999460954,
      "SpecificCharacterSet": "ISO_IR 100",
      "StudyID": "1",
      "StudyTime": "093249.503000",
      "TimeOfLastCalibration": ["123723.000000", "123723.000000"],
      "TransmitCoilName": "Body",
      "VariableFlipAngleFlag": "N",
      "WindowCenterWidthExplanation": "Algo1",
      "dBdt": 0.0},
    "slices": {}
  },
  "time": {
    "samples": {
      "AcquisitionNumber": [1, 2, 3, 4, 5, 6, 7, 8, 9, 10, 11, 12, 13, 14, 15, 16, 17, 18, 19, 20, 21, 22, 23, 24, 25, 26, 27, 28, 29, 30, 31, 32, 33, 34, 35, 36, 37, 38, 39, 40, 41, 42, 43, 44, 45, 46, 47, 48, 49, 50, 51, 52, 53, 54, 55, 56, 57, 58, 59, 60, 61, 62, 63, 64, 65, 66, 67, 68, 69, 70, 71, 72, 73, 74, 75, 76, 77, 78, 79, 80, 81, 82, 83, 84, 85, 86, 87, 88, 89, 90, 91, 92, 93, 94, 95, 96, 97, 98, 99, 100, 101, 102, 103, 104, 105, 106, 107, 108, 109, 110, 111, 112, 113, 114, 115, 116, 117, 118, 119, 120, 121, 122, 123, 124, 125, 126, 127, 128, 129, 130, 131, 132, 133, 134, 135, 136, 137, 138, 139, 140, 141, 142, 143, 144, 145, 146, 147, 148, 149, 150, 151, 152, 153, 154, 155],
      "AcquisitionTime": ["101754.922500", "101756.922500", "101758.922500", "101800.922500", "101802.922500", "101804.922500", "101806.922500", "101808.922500", "101810.922500", "101812.922500", "101814.922500", "101816.922500", "101818.922500", "101820.922500", "101822.922500", "101824.922500", "101826.922500", "101828.922500", "101830.922500", "101832.922500", "101834.922500", "101836.922500", "101838.922500", "101840.922500", "101842.922500", "101844.922500", "101846.922500", "101848.922500", "101850.922500", "101852.925000", "101854.925000", "101856.925000", "101858.925000", "101900.925000", "101902.925000", "101904.925000", "101906.925000", "101908.925000", "101910.925000", "101912.925000", "101914.925000", "101916.925000", "101918.925000", "101920.925000", "101922.925000", "101924.925000", "101926.925000", "101928.925000", "101930.925000", "101932.925000", "101934.925000", "101936.925000", "101938.925000", "101940.925000", "101942.925000", "101944.925000", "101946.925000", "101948.925000", "101950.925000", "101952.925000", "101954.925000", "101956.925000", "101958.925000", "102000.925000", "102002.925000", "102004.925000", "102006.925000", "102008.925000", "102010.925000", "102012.925000", "102014.925000", "102016.925000", "102018.925000", "102020.925000", "102022.925000", "102024.925000", "102026.925000", "102028.925000", "102030.925000", "102032.925000", "102034.925000", "102036.925000", "102038.925000", "102040.925000", "102042.925000", "102044.925000", "102046.925000", "102048.925000", "102050.925000", "102052.925000", "102054.925000", "102056.925000", "102058.925000", "102100.925000", "102102.925000", "102104.925000", "102106.925000", "102108.925000", "102110.925000", "102112.925000", "102114.925000", "102116.925000", "102118.925000", "102120.925000", "102122.925000", "102124.925000", "102126.925000", "102128.925000", "102130.925000", "102132.925000", "102134.925000", "102136.925000", "102138.925000", "102140.925000", "102142.925000", "102144.925000", "102146.925000", "102148.925000", "102150.925000", "102152.925000", "102154.925000", "102156.925000", "102158.925000", "102200.925000", "102202.925000", "102204.925000", "102206.925000", "102208.925000", "102210.925000", "102212.925000", "102214.925000", "102216.925000", "102218.925000", "102220.925000", "102222.925000", "102224.925000", "102226.925000", "102228.925000", "102230.925000", "102232.925000", "102234.925000", "102236.925000", "102238.925000", "102240.925000", "102242.925000", "102244.925000", "102246.925000", "102248.925000", "102250.925000", "102252.925000", "102254.925000", "102256.925000", "102258.925000", "102300.925000", "102302.925000"],
      "ContentTime": ["101838.278000", "101838.291000", "101838.294000", "101838.297000", "101838.302000", "101838.310000", "101838.313000", "101838.316000", "101838.319000", "101838.322000", "101838.325000", "101838.328000", "101838.330000", "101838.334000", "101838.337000", "101838.340000", "101838.343000", "101838.345000", "101838.348000", "101838.350000", "101918.271000", "101918.274000", "101918.277000", "101918.280000", "101918.282000", "101918.285000", "101918.288000", "101918.290000", "101918.293000", "101918.296000", "101918.299000", "101918.301000", "101918.304000", "101918.307000", "101918.310000", "101918.313000", "101918.316000", "101918.318000", "101918.321000", "101918.324000", "101958.270000", "101958.273000", "101958.276000", "101958.279000", "101958.282000", "101958.284000", "101958.287000", "101958.290000", "101958.292000", "101958.295000", "101958.298000", "101958.301000", "101958.304000", "101958.307000", "101958.310000", "101958.313000", "101958.316000", "101958.319000", "101958.322000", "101958.325000", "102038.269000", "102038.272000", "102038.282000", "102038.285000", "102038.287000", "102038.290000", "102038.294000", "102038.296000", "102038.299000", "102038.302000", "102038.305000", "102038.308000", "102038.310000", "102038.313000", "102038.316000", "102038.319000", "102038.321000", "102038.324000", "102038.327000", "102038.331000", "102118.270000", "102118.273000", "102118.276000", "102118.279000", "102118.281000", "102118.284000", "102118.287000", "102118.289000", "102118.292000", "102118.295000", "102118.298000", "102118.301000", "102118.304000", "102118.307000", "102118.310000", "102118.313000", "102118.315000", "102118.318000", "102118.321000", "102118.324000", "102158.270000", "102158.273000", "102158.276000", "102158.279000", "102158.281000", "102158.284000", "102158.287000", "102158.290000", "102158.292000", "102158.295000", "102158.298000", "102158.301000", "102158.304000", "102158.307000", "102158.309000", "102158.312000", "102158.315000", "102158.318000", "102158.320000", "102158.323000", "102238.270000", "102238.273000", "102238.276000", "102238.279000", "102238.282000", "102238.284000", "102238.287000", "102238.290000", "102238.292000", "102238.295000", "102238.298000", "102238.301000", "102238.304000", "102238.307000", "102238.310000", "102238.312000", "102238.315000", "102238.318000", "102238.321000", "102238.324000", "102306.398000", "102306.401000", "102306.405000", "102306.408000", "102306.412000", "102306.415000", "102306.418000", "102306.421000", "102306.424000", "102306.427000", "102306.431000", "102306.437000", "102306.440000", "102306.443000", "102306.449000"],
      "InstanceCreationTime": ["101838.278000", "101838.291000", "101838.294000", "101838.297000", "101838.302000", "101838.310000", "101838.313000", "101838.316000", "101838.319000", "101838.322000", "101838.325000", "101838.328000", "101838.330000", "101838.334000", "101838.337000", "101838.340000", "101838.343000", "101838.345000", "101838.348000", "101838.350000", "101918.271000", "101918.274000", "101918.277000", "101918.280000", "101918.282000", "101918.285000", "101918.288000", "101918.290000", "101918.293000", "101918.296000", "101918.299000", "101918.301000", "101918.304000", "101918.307000", "101918.310000", "101918.313000", "101918.316000", "101918.318000", "101918.321000", "101918.324000", "101958.270000", "101958.273000", "101958.276000", "101958.279000", "101958.282000", "101958.284000", "101958.287000", "101958.290000", "101958.292000", "101958.295000", "101958.298000", "101958.301000", "101958.304000", "101958.307000", "101958.310000", "101958.313000", "101958.316000", "101958.319000", "101958.322000", "101958.325000", "102038.269000", "102038.272000", "102038.282000", "102038.285000", "102038.287000", "102038.290000", "102038.294000", "102038.296000", "102038.299000", "102038.302000", "102038.305000", "102038.308000", "102038.310000", "102038.313000", "102038.316000", "102038.319000", "102038.321000", "102038.324000", "102038.327000", "102038.331000", "102118.270000", "102118.273000", "102118.276000", "102118.279000", "102118.281000", "102118.284000", "102118.287000", "102118.289000", "102118.292000", "102118.295000", "102118.298000", "102118.301000", "102118.304000", "102118.307000", "102118.310000", "102118.313000", "102118.315000", "102118.318000", "102118.321000", "102118.324000", "102158.270000", "102158.273000", "102158.276000", "102158.279000", "102158.281000", "102158.284000", "102158.287000", "102158.290000", "102158.292000", "102158.295000", "102158.298000", "102158.301000", "102158.304000", "102158.307000", "102158.309000", "102158.312000", "102158.315000", "102158.318000", "102158.320000", "102158.323000", "102238.270000", "102238.273000", "102238.276000", "102238.279000", "102238.282000", "102238.284000", "102238.287000", "102238.290000", "102238.292000", "102238.295000", "102238.298000", "102238.301000", "102238.304000", "102238.307000", "102238.310000", "102238.312000", "102238.315000", "102238.318000", "102238.321000", "102238.324000", "102306.398000", "102306.401000", "102306.405000", "102306.408000", "102306.412000", "102306.415000", "102306.418000", "102306.421000", "102306.424000", "102306.427000", "102306.431000", "102306.437000", "102306.440000", "102306.443000", "102306.449000"],
      "InstanceNumber": [1, 2, 3, 4, 5, 6, 7, 8, 9, 10, 11, 12, 13, 14, 15, 16, 17, 18, 19, 20, 21, 22, 23, 24, 25, 26, 27, 28, 29, 30, 31, 32, 33, 34, 35, 36, 37, 38, 39, 40, 41, 42, 43, 44, 45, 46, 47, 48, 49, 50, 51, 52, 53, 54, 55, 56, 57, 58, 59, 60, 61, 62, 63, 64, 65, 66, 67, 68, 69, 70, 71, 72, 73, 74, 75, 76, 77, 78, 79, 80, 81, 82, 83, 84, 85, 86, 87, 88, 89, 90, 91, 92, 93, 94, 95, 96, 97, 98, 99, 100, 101, 102, 103, 104, 105, 106, 107, 108, 109, 110, 111, 112, 113, 114, 115, 116, 117, 118, 119, 120, 121, 122, 123, 124, 125, 126, 127, 128, 129, 130, 131, 132, 133, 134, 135, 136, 137, 138, 139, 140, 141, 142, 143, 144, 145, 146, 147, 148, 149, 150, 151, 152, 153, 154, 155],
      "LargestImagePixelValue": [868, 943, 966, 995, 963, 894, 828, 1000, 1060, 878, 940, 975, 976, 889, 881, 936, 927, 886, 883, 924, 808, 939, 858, 998, 1068, 1106, 924, 926, 861, 889, 919, 946, 867, 807, 804, 815, 805, 812, 904, 937, 906, 941, 918, 894, 944, 872, 779, 1029, 848, 826, 804, 792, 817, 882, 944, 807, 852, 855, 831, 906, 867, 866, 866, 1018, 1051, 1123, 1066, 1019, 971, 815, 859, 839, 830, 813, 845, 797, 851, 806, 912, 810, 846, 828, 877, 882, 994, 860, 921, 898, 1021, 1013, 1137, 1073, 893, 975, 1026, 1053, 824, 948, 1077, 851, 806, 805, 879, 926, 846, 943, 820, 840, 914, 965, 933, 956, 940, 982, 948, 995, 978, 965, 911, 972, 909, 950, 973, 951, 926, 877, 890, 1075, 880, 927, 932, 1000, 1050, 1007, 949, 1005, 1009, 947, 906, 907, 1019, 1018, 1006, 982, 902, 937, 954, 834, 977, 941, 924, 930, 953, 901, 843],
      "WindowCenter": [428.0, 429.0, 428.0, 428.0, 427.0, 428.0, 431.0, 431.0, 429.0, 425.0, 424.0, 423.0, 422.0, 422.0, 423.0, 424.0, 424.0, 426.0, 425.0, 426.0, 428.0, 431.0, 432.0, 431.0, 428.0, 426.0, 424.0, 425.0, 425.0, 425.0, 426.0, 429.0, 427.0, 428.0, 427.0, 428.0, 428.0, 429.0, 430.0, 431.0, 430.0, 428.0, 427.0, 428.0, 428.0, 428.0, 426.0, 429.0, 425.0, 425.0, 425.0, 426.0, 427.0, 426.0, 426.0, 425.0, 427.0, 427.0, 427.0, 427.0, 427.0, 430.0, 428.0, 431.0, 429.0, 427.0, 425.0, 422.0, 422.0, 422.0, 423.0, 424.0, 425.0, 425.0, 426.0, 425.0, 426.0, 426.0, 428.0, 426.0, 427.0, 427.0, 428.0, 428.0, 429.0, 431.0, 438.0, 436.0, 433.0, 428.0, 433.0, 426.0, 424.0, 425.0, 425.0, 426.0, 424.0, 428.0, 431.0, 427.0, 424.0, 425.0, 428.0, 428.0, 426.0, 428.0, 427.0, 429.0, 428.0, 428.0, 428.0, 428.0, 428.0, 428.0, 428.0, 428.0, 429.0, 429.0, 428.0, 429.0, 428.0, 429.0, 429.0, 429.0, 428.0, 429.0, 429.0, 430.0, 426.0, 427.0, 427.0, 427.0, 427.0, 427.0, 426.0, 427.0, 425.0, 424.0, 424.0, 425.0, 427.0, 426.0, 426.0, 426.0, 425.0, 426.0, 426.0, 424.0, 427.0, 426.0, 426.0, 426.0, 425.0, 425.0, 435.0],
      "WindowWidth": [905.0, 905.0, 903.0, 903.0, 901.0, 904.0, 910.0, 910.0, 905.0, 899.0, 895.0, 893.0, 892.0, 892.0, 893.0, 895.0, 896.0, 899.0, 899.0, 900.0, 905.0, 910.0, 913.0, 909.0, 903.0, 900.0, 897.0, 897.0, 897.0, 899.0, 900.0, 906.0, 901.0, 904.0, 902.0, 903.0, 905.0, 906.0, 907.0, 908.0, 907.0, 904.0, 902.0, 904.0, 904.0, 903.0, 901.0, 904.0, 899.0, 898.0, 898.0, 900.0, 901.0, 900.0, 899.0, 898.0, 901.0, 902.0, 902.0, 901.0, 902.0, 909.0, 904.0, 909.0, 905.0, 901.0, 898.0, 893.0, 892.0, 892.0, 895.0, 897.0, 898.0, 898.0, 899.0, 899.0, 901.0, 901.0, 903.0, 901.0, 902.0, 903.0, 904.0, 904.0, 905.0, 911.0, 925.0, 919.0, 913.0, 904.0, 913.0, 900.0, 895.0, 898.0, 897.0, 899.0, 896.0, 904.0, 909.0, 901.0, 896.0, 899.0, 903.0, 904.0, 901.0, 904.0, 902.0, 905.0, 905.0, 904.0, 903.0, 904.0, 904.0, 904.0, 903.0, 904.0, 905.0, 905.0, 904.0, 905.0, 905.0, 905.0, 906.0, 905.0, 904.0, 905.0, 906.0, 906.0, 900.0, 901.0, 901.0, 902.0, 901.0, 901.0, 900.0, 901.0, 898.0, 897.0, 896.0, 897.0, 900.0, 899.0, 899.0, 899.0, 899.0, 900.0, 900.0, 897.0, 901.0, 900.0, 899.0, 899.0, 898.0, 899.0, 918.0]
    },
    "slices": {}
  }
}