{
  "AcquisitionMatrixPE": 64,
  "AcquisitionNumber": 1,
  "AcquisitionTime": "17:37:34.075000",
  "BandwidthPerPixelPhaseEncode": 40.064,
  "BaseResolution": 64,
  "BodyPartExamined": "BRAIN",
  "ConsistencyInfo": "N4_VD13D_LATEST_20130810",
  "ConversionSoftware": "dcm2niix",
  "ConversionSoftwareVersion": "v1.0.20191031",
  "DerivedVendorReportedEchoSpacing": 0.000780002,
  "DeviceSerialNumber": "67007",
  "DwellTime": 5.3e-06,
  "EchoTime": 0.03,
  "EchoTrainLength": 31,
  "EffectiveEchoSpacing": 0.000390001,
  "FlipAngle": 75,
  "ImageOrientationPatientDICOM": [1, -2.00395e-10, 4.3693e-11, 2.05103e-10, 0.977046, -0.21303],
  "ImageType": [
    "ORIGINAL",
    "PRIMARY",
    "M",
    "ND",
    "NORM",
    "MOSAIC"
],
  "ImagingFrequency": 123.211,
  "InPlanePhaseEncodingDirectionDICOM": "ROW",
  "InstitutionAddress": "Perth_Drive_100_London_Ontario_CA_N6A_5K8",
  "InstitutionName": "Robarts-CFMM",
  "InstitutionalDepartmentName": "CFMM",
  "MRAcquisitionType": "2D",
  "MagneticFieldStrength": 3,
  "Manufacturer": "Siemens",
  "ManufacturersModelName": "Prisma_fit",
  "Modality": "MR",
  "ParallelReductionFactorInPlane": 2,
  "PartialFourier": 1,
  "PatientPosition": "HFS",
  "PercentPhaseFOV": 100,
  "PhaseEncodingDirection": "i",
  "PhaseEncodingSteps": 63,
  "PhaseResolution": 1,
  "PixelBandwidth": 1475,
  "ProcedureStepDescription": "Owen_Naci",
  "ProtocolName": "Resting_State_deep_sed",
  "PulseSequenceDetails": "%SiemensSeq%_ep2d_bold",
  "ReceiveCoilActiveElements": "HEA;HEP",
  "ReceiveCoilName": "Head_32",
  "ReconMatrixPE": 64,
  "RefLinesPE": 24,
  "RepetitionTime": 2,
  "SAR": 0.0813432,
  "ScanOptions": "FS",
  "ScanningSequence": "EP",
  "SequenceName": "_epfid2d1_64",
  "SequenceVariant": "SK",
  "SeriesDescription": "Resting_State_deep_sed",
  "SeriesNumber": 17,
  "ShimSetting": [5242, -6117, -3817, 297, -14, 115, -82, 6],
  "SliceThickness": 3,
  "SliceTiming": [1.92, 1.86, 1.8, 1.74, 1.68, 1.62, 1.56, 1.5, 1.44, 1.38, 1.32, 1.26, 1.2, 1.14, 1.08, 1.02, 0.96, 0.9, 0.84, 0.78, 0.72, 0.66, 0.6, 0.54, 0.48, 0.42, 0.36, 0.3, 0.24, 0.18, 0.12, 0.06, 0],
  "SoftwareVersions": "syngo_MR_D13D",
  "SpacingBetweenSlices": 3.75,
  "StationName": "AWP67007",
  "TaskName": "restdeep",
  "TotalReadoutTime": 0.0245701,
  "TxRefAmp": 257.03,
  "dcmmeta_affine": [
    [-3.0, 6.153090259530813e-10, -6.51852468707472e-16, 99.65092468261719],
    [6.01184990678405e-10, 2.9311366081237793, -0.7988640069961548, -67.37769317626953],
    [1.31078994880518e-10, 0.6390911936759949, 3.6639208793640137, -56.40758514404297],
    [0.0, 0.0, 0.0, 1.0]
],
  "dcmmeta_reorient_transform": [
    [0.0, -1.0, 0.0, 63.0],
    [1.0, 0.0, 0.0, 0.0],
    [0.0, 0.0, 1.0, 0.0],
    [0.0, 0.0, 0.0, 1.0]
],
  "dcmmeta_shape": [64, 64, 33, 256],
  "dcmmeta_slice_dim": 2,
  "dcmmeta_version": 0.6,
  "global": {
    "const": {
      "AcquisitionMatrix": [0, 64, 64, 0],
      "AngioFlag": "N",
      "BitsAllocated": 16,
      "BitsStored": 12,
      "BodyPartExamined": "BRAIN",
      "Columns": 384,
      "EchoNumbers": 1,
      "EchoTime": 30.0,
      "EchoTrainLength": 31,
      "FlipAngle": 75.0,
      "HighBit": 11,
      "ImageOrientationPatient": [1.0, -2.00395e-10, 4.3693e-11, 2.05103e-10, 0.97704557251007, -0.2130303951047],
      "ImagePositionPatient": [-579.65092718494, -586.2657984785, 86.109751024373],
      "ImageType": [
        "ORIGINAL",
        "PRIMARY",
        "M",
        "ND",
        "NORM",
        "MOSAIC"
],
      "ImagedNucleus": "1H",
      "ImagingFrequency": 123.21098,
      "InPlanePhaseEncodingDirection": "ROW",
      "MRAcquisitionType": "2D",
      "MagneticFieldStrength": 3.0,
      "Manufacturer": "SIEMENS",
      "ManufacturerModelName": "Prisma_fit",
      "Modality": "MR",
      "NumberOfAverages": 1.0,
      "NumberOfPhaseEncodingSteps": 63,
      "PercentPhaseFieldOfView": 100.0,
      "PercentSampling": 100.0,
      "PerformedProcedureStepStartTime": "150817.850000",
      "PhotometricInterpretation": "MONOCHROME2",
      "PixelBandwidth": 1475.0,
      "PixelRepresentation": 0,
      "PixelSpacing": [3.0, 3.0],
      "ProtocolName": "Resting State_deep sed",
      "RepetitionTime": 2000.0,
      "Rows": 384,
      "SAR": 0.08134317669938,
      "SamplesPerPixel": 1,
      "ScanOptions": "FS",
      "ScanningSequence": "EP",
      "SequenceName": "*epfid2d1_64",
      "SequenceVariant": "SK",
      "SeriesDescription": "Resting State_deep sed",
      "SeriesNumber": 17,
      "SeriesTime": "173821.524000",
      "SliceLocation": -40.759283697934,
      "SliceThickness": 3.0,
      "SmallestImagePixelValue": 0,
      "SoftwareVersions": "syngo MR D13D",
      "SpacingBetweenSlices": 3.7499999803191,
      "SpecificCharacterSet": "ISO_IR 100",
      "StudyID": "1",
      "StudyTime": "150817.803000",
      "TimeOfLastCalibration": ["123723.000000", "123723.000000"],
      "TransmitCoilName": "Body",
      "VariableFlipAngleFlag": "N",
      "WindowCenterWidthExplanation": "Algo1",
      "dBdt": 0.0},
    "slices": {}
  },
  "time": {
    "samples": {
      "AcquisitionNumber": [1, 2, 3, 4, 5, 6, 7, 8, 9, 10, 11, 12, 13, 14, 15, 16, 17, 18, 19, 20, 21, 22, 23, 24, 25, 26, 27, 28, 29, 30, 31, 32, 33, 34, 35, 36, 37, 38, 39, 40, 41, 42, 43, 44, 45, 46, 47, 48, 49, 50, 51, 52, 53, 54, 55, 56, 57, 58, 59, 60, 61, 62, 63, 64, 65, 66, 67, 68, 69, 70, 71, 72, 73, 74, 75, 76, 77, 78, 79, 80, 81, 82, 83, 84, 85, 86, 87, 88, 89, 90, 91, 92, 93, 94, 95, 96, 97, 98, 99, 100, 101, 102, 103, 104, 105, 106, 107, 108, 109, 110, 111, 112, 113, 114, 115, 116, 117, 118, 119, 120, 121, 122, 123, 124, 125, 126, 127, 128, 129, 130, 131, 132, 133, 134, 135, 136, 137, 138, 139, 140, 141, 142, 143, 144, 145, 146, 147, 148, 149, 150, 151, 152, 153, 154, 155, 156, 157, 158, 159, 160, 161, 162, 163, 164, 165, 166, 167, 168, 169, 170, 171, 172, 173, 174, 175, 176, 177, 178, 179, 180, 181, 182, 183, 184, 185, 186, 187, 188, 189, 190, 191, 192, 193, 194, 195, 196, 197, 198, 199, 200, 201, 202, 203, 204, 205, 206, 207, 208, 209, 210, 211, 212, 213, 214, 215, 216, 217, 218, 219, 220, 221, 222, 223, 224, 225, 226, 227, 228, 229, 230, 231, 232, 233, 234, 235, 236, 237, 238, 239, 240, 241, 242, 243, 244, 245, 246, 247, 248, 249, 250, 251, 252, 253, 254, 255, 256],
      "AcquisitionTime": ["173734.075000", "173736.075000", "173738.075000", "173740.075000", "173742.075000", "173744.075000", "173746.075000", "173748.075000", "173750.075000", "173752.075000", "173754.075000", "173756.075000", "173758.075000", "173800.075000", "173802.075000", "173804.075000", "173806.075000", "173808.075000", "173810.075000", "173812.075000", "173814.075000", "173816.075000", "173818.075000", "173820.075000", "173822.075000", "173824.075000", "173826.075000", "173828.075000", "173830.075000", "173832.075000", "173834.075000", "173836.075000", "173838.075000", "173840.075000", "173842.075000", "173844.075000", "173846.075000", "173848.075000", "173850.075000", "173852.075000", "173854.075000", "173856.075000", "173858.075000", "173900.075000", "173902.075000", "173904.075000", "173906.075000", "173908.075000", "173910.075000", "173912.075000", "173914.075000", "173916.075000", "173918.075000", "173920.075000", "173922.075000", "173924.075000", "173926.075000", "173928.075000", "173930.075000", "173932.075000", "173934.075000", "173936.075000", "173938.075000", "173940.075000", "173942.075000", "173944.075000", "173946.075000", "173948.075000", "173950.075000", "173952.075000", "173954.075000", "173956.075000", "173958.075000", "174000.075000", "174002.075000", "174004.075000", "174006.075000", "174008.075000", "174010.075000", "174012.075000", "174014.075000", "174016.075000", "174018.075000", "174020.075000", "174022.075000", "174024.075000", "174026.075000", "174028.075000", "174030.075000", "174032.075000", "174034.075000", "174036.075000", "174038.075000", "174040.075000", "174042.075000", "174044.075000", "174046.075000", "174048.075000", "174050.075000", "174052.075000", "174054.075000", "174056.075000", "174058.075000", "174100.075000", "174102.075000", "174104.075000", "174106.075000", "174108.075000", "174110.075000", "174112.075000", "174114.075000", "174116.075000", "174118.075000", "174120.075000", "174122.075000", "174124.075000", "174126.075000", "174128.075000", "174130.075000", "174132.075000", "174134.075000", "174136.075000", "174138.075000", "174140.075000", "174142.075000", "174144.075000", "174146.075000", "174148.075000", "174150.075000", "174152.075000", "174154.075000", "174156.075000", "174158.075000", "174200.075000", "174202.075000", "174204.075000", "174206.075000", "174208.075000", "174210.075000", "174212.075000", "174214.075000", "174216.075000", "174218.075000", "174220.075000", "174222.075000", "174224.075000", "174226.075000", "174228.075000", "174230.075000", "174232.075000", "174234.075000", "174236.075000", "174238.075000", "174240.075000", "174242.075000", "174244.077500", "174246.077500", "174248.077500", "174250.077500", "174252.077500", "174254.077500", "174256.077500", "174258.077500", "174300.077500", "174302.077500", "174304.077500", "174306.077500", "174308.077500", "174310.077500", "174312.077500", "174314.077500", "174316.077500", "174318.077500", "174320.077500", "174322.077500", "174324.077500", "174326.077500", "174328.077500", "174330.077500", "174332.077500", "174334.077500", "174336.077500", "174338.077500", "174340.077500", "174342.077500", "174344.077500", "174346.077500", "174348.077500", "174350.077500", "174352.077500", "174354.077500", "174356.077500", "174358.077500", "174400.077500", "174402.077500", "174404.077500", "174406.077500", "174408.077500", "174410.077500", "174412.077500", "174414.077500", "174416.077500", "174418.077500", "174420.077500", "174422.077500", "174424.077500", "174426.077500", "174428.077500", "174430.077500", "174432.077500", "174434.077500", "174436.077500", "174438.077500", "174440.077500", "174442.077500", "174444.077500", "174446.077500", "174448.077500", "174450.077500", "174452.077500", "174454.077500", "174456.077500", "174458.077500", "174500.077500", "174502.077500", "174504.077500", "174506.077500", "174508.077500", "174510.077500", "174512.077500", "174514.077500", "174516.077500", "174518.077500", "174520.077500", "174522.077500", "174524.077500", "174526.077500", "174528.077500", "174530.077500", "174532.077500", "174534.077500", "174536.077500", "174538.077500", "174540.077500", "174542.077500", "174544.077500", "174546.077500", "174548.077500", "174550.077500", "174552.077500", "174554.077500", "174556.077500", "174558.077500", "174600.077500", "174602.077500", "174604.077500"],
      "ContentTime": ["173821.528000", "173821.532000", "173821.534000", "173821.537000", "173821.540000", "173821.543000", "173821.546000", "173821.549000", "173821.552000", "173821.555000", "173821.558000", "173821.565000", "173821.568000", "173821.571000", "173821.574000", "173821.577000", "173821.580000", "173821.583000", "173821.586000", "173821.589000", "173821.592000", "173821.595000", "173821.597000", "173821.600000", "173901.522000", "173901.526000", "173901.529000", "173901.531000", "173901.534000", "173901.537000", "173901.540000", "173901.543000", "173901.546000", "173901.549000", "173901.552000", "173901.555000", "173901.558000", "173901.561000", "173901.564000", "173901.567000", "173901.569000", "173901.572000", "173901.575000", "173901.578000", "173941.524000", "173941.527000", "173941.530000", "173941.533000", "173941.536000", "173941.539000", "173941.542000", "173941.544000", "173941.547000", "173941.550000", "173941.553000", "173941.556000", "173941.559000", "173941.561000", "173941.564000", "173941.567000", "173941.570000", "173941.573000", "173941.576000", "173941.579000", "174021.521000", "174021.525000", "174021.528000", "174021.531000", "174021.534000", "174021.537000", "174021.540000", "174021.542000", "174021.545000", "174021.548000", "174021.551000", "174021.554000", "174021.556000", "174021.559000", "174021.562000", "174021.565000", "174021.567000", "174021.570000", "174021.573000", "174021.576000", "174101.522000", "174101.526000", "174101.529000", "174101.532000", "174101.535000", "174101.538000", "174101.541000", "174101.544000", "174101.546000", "174101.553000", "174101.556000", "174101.609000", "174101.612000", "174101.616000", "174101.619000", "174101.622000", "174101.624000", "174101.628000", "174101.630000", "174101.633000", "174141.522000", "174141.525000", "174141.528000", "174141.531000", "174141.534000", "174141.537000", "174141.539000", "174141.542000", "174141.545000", "174141.548000", "174141.551000", "174141.554000", "174141.557000", "174141.560000", "174141.563000", "174141.565000", "174141.568000", "174141.571000", "174141.574000", "174141.577000", "174221.522000", "174221.526000", "174221.529000", "174221.532000", "174221.534000", "174221.537000", "174221.540000", "174221.542000", "174221.545000", "174221.548000", "174221.551000", "174221.561000", "174221.564000", "174221.567000", "174221.570000", "174221.573000", "174221.576000", "174221.579000", "174221.582000", "174221.585000", "174301.522000", "174301.525000", "174301.528000", "174301.531000", "174301.534000", "174301.537000", "174301.539000", "174301.542000", "174301.545000", "174301.548000", "174301.551000", "174301.554000", "174301.557000", "174301.560000", "174301.563000", "174301.566000", "174301.568000", "174301.571000", "174301.574000", "174301.577000", "174341.522000", "174341.526000", "174341.528000", "174341.531000", "174341.534000", "174341.537000", "174341.540000", "174341.542000", "174341.545000", "174341.548000", "174341.551000", "174341.554000", "174341.557000", "174341.560000", "174341.562000", "174341.565000", "174341.568000", "174341.571000", "174341.574000", "174341.577000", "174421.522000", "174421.525000", "174421.528000", "174421.531000", "174421.534000", "174421.537000", "174421.540000", "174421.543000", "174421.545000", "174421.548000", "174421.552000", "174421.554000", "174421.557000", "174421.560000", "174421.564000", "174421.566000", "174421.569000", "174421.572000", "174421.575000", "174421.578000", "174501.520000", "174501.523000", "174501.526000", "174501.529000", "174501.532000", "174501.534000", "174501.537000", "174501.540000", "174501.543000", "174501.546000", "174501.549000", "174501.552000", "174501.555000", "174501.558000", "174501.561000", "174501.564000", "174501.567000", "174501.570000", "174501.573000", "174501.575000", "174541.520000", "174541.526000", "174541.528000", "174541.531000", "174541.534000", "174541.537000", "174541.540000", "174541.542000", "174541.545000", "174541.548000", "174541.551000", "174541.554000", "174541.557000", "174541.560000", "174541.563000", "174541.566000", "174541.569000", "174541.572000", "174541.575000", "174541.578000", "174605.175000", "174605.179000", "174605.182000", "174605.185000", "174605.188000", "174605.191000", "174605.194000", "174605.197000", "174605.200000", "174605.203000", "174605.206000", "174605.209000"],
      "InstanceCreationTime": ["173821.528000", "173821.532000", "173821.534000", "173821.537000", "173821.540000", "173821.543000", "173821.546000", "173821.549000", "173821.552000", "173821.555000", "173821.558000", "173821.565000", "173821.568000", "173821.571000", "173821.574000", "173821.577000", "173821.580000", "173821.583000", "173821.586000", "173821.589000", "173821.592000", "173821.595000", "173821.597000", "173821.600000", "173901.522000", "173901.526000", "173901.529000", "173901.531000", "173901.534000", "173901.537000", "173901.540000", "173901.543000", "173901.546000", "173901.549000", "173901.552000", "173901.555000", "173901.558000", "173901.561000", "173901.564000", "173901.567000", "173901.569000", "173901.572000", "173901.575000", "173901.578000", "173941.524000", "173941.527000", "173941.530000", "173941.533000", "173941.536000", "173941.539000", "173941.542000", "173941.544000", "173941.547000", "173941.550000", "173941.553000", "173941.556000", "173941.559000", "173941.561000", "173941.564000", "173941.567000", "173941.570000", "173941.573000", "173941.576000", "173941.579000", "174021.521000", "174021.525000", "174021.528000", "174021.531000", "174021.534000", "174021.537000", "174021.540000", "174021.542000", "174021.545000", "174021.548000", "174021.551000", "174021.554000", "174021.556000", "174021.559000", "174021.562000", "174021.565000", "174021.567000", "174021.570000", "174021.573000", "174021.576000", "174101.522000", "174101.526000", "174101.529000", "174101.532000", "174101.535000", "174101.538000", "174101.541000", "174101.544000", "174101.546000", "174101.553000", "174101.556000", "174101.609000", "174101.612000", "174101.616000", "174101.619000", "174101.622000", "174101.624000", "174101.628000", "174101.630000", "174101.633000", "174141.522000", "174141.525000", "174141.528000", "174141.531000", "174141.534000", "174141.537000", "174141.539000", "174141.542000", "174141.545000", "174141.548000", "174141.551000", "174141.554000", "174141.557000", "174141.560000", "174141.563000", "174141.565000", "174141.568000", "174141.571000", "174141.574000", "174141.577000", "174221.522000", "174221.526000", "174221.529000", "174221.532000", "174221.534000", "174221.537000", "174221.540000", "174221.542000", "174221.545000", "174221.548000", "174221.551000", "174221.561000", "174221.564000", "174221.567000", "174221.570000", "174221.573000", "174221.576000", "174221.579000", "174221.582000", "174221.585000", "174301.522000", "174301.525000", "174301.528000", "174301.531000", "174301.534000", "174301.537000", "174301.539000", "174301.542000", "174301.545000", "174301.548000", "174301.551000", "174301.554000", "174301.557000", "174301.560000", "174301.563000", "174301.566000", "174301.568000", "174301.571000", "174301.574000", "174301.577000", "174341.522000", "174341.526000", "174341.528000", "174341.531000", "174341.534000", "174341.537000", "174341.540000", "174341.542000", "174341.545000", "174341.548000", "174341.551000", "174341.554000", "174341.557000", "174341.560000", "174341.562000", "174341.565000", "174341.568000", "174341.571000", "174341.574000", "174341.577000", "174421.522000", "174421.525000", "174421.528000", "174421.531000", "174421.534000", "174421.537000", "174421.540000", "174421.543000", "174421.545000", "174421.548000", "174421.552000", "174421.554000", "174421.557000", "174421.560000", "174421.564000", "174421.566000", "174421.569000", "174421.572000", "174421.575000", "174421.578000", "174501.520000", "174501.523000", "174501.526000", "174501.529000", "174501.532000", "174501.534000", "174501.537000", "174501.540000", "174501.543000", "174501.546000", "174501.549000", "174501.552000", "174501.555000", "174501.558000", "174501.561000", "174501.564000", "174501.567000", "174501.570000", "174501.573000", "174501.575000", "174541.520000", "174541.526000", "174541.528000", "174541.531000", "174541.534000", "174541.537000", "174541.540000", "174541.542000", "174541.545000", "174541.548000", "174541.551000", "174541.554000", "174541.557000", "174541.560000", "174541.563000", "174541.566000", "174541.569000", "174541.572000", "174541.575000", "174541.578000", "174605.175000", "174605.179000", "174605.182000", "174605.185000", "174605.188000", "174605.191000", "174605.194000", "174605.197000", "174605.200000", "174605.203000", "174605.206000", "174605.209000"],
      "InstanceNumber": [1, 2, 3, 4, 5, 6, 7, 8, 9, 10, 11, 12, 13, 14, 15, 16, 17, 18, 19, 20, 21, 22, 23, 24, 25, 26, 27, 28, 29, 30, 31, 32, 33, 34, 35, 36, 37, 38, 39, 40, 41, 42, 43, 44, 45, 46, 47, 48, 49, 50, 51, 52, 53, 54, 55, 56, 57, 58, 59, 60, 61, 62, 63, 64, 65, 66, 67, 68, 69, 70, 71, 72, 73, 74, 75, 76, 77, 78, 79, 80, 81, 82, 83, 84, 85, 86, 87, 88, 89, 90, 91, 92, 93, 94, 95, 96, 97, 98, 99, 100, 101, 102, 103, 104, 105, 106, 107, 108, 109, 110, 111, 112, 113, 114, 115, 116, 117, 118, 119, 120, 121, 122, 123, 124, 125, 126, 127, 128, 129, 130, 131, 132, 133, 134, 135, 136, 137, 138, 139, 140, 141, 142, 143, 144, 145, 146, 147, 148, 149, 150, 151, 152, 153, 154, 155, 156, 157, 158, 159, 160, 161, 162, 163, 164, 165, 166, 167, 168, 169, 170, 171, 172, 173, 174, 175, 176, 177, 178, 179, 180, 181, 182, 183, 184, 185, 186, 187, 188, 189, 190, 191, 192, 193, 194, 195, 196, 197, 198, 199, 200, 201, 202, 203, 204, 205, 206, 207, 208, 209, 210, 211, 212, 213, 214, 215, 216, 217, 218, 219, 220, 221, 222, 223, 224, 225, 226, 227, 228, 229, 230, 231, 232, 233, 234, 235, 236, 237, 238, 239, 240, 241, 242, 243, 244, 245, 246, 247, 248, 249, 250, 251, 252, 253, 254, 255, 256],
      "LargestImagePixelValue": [843, 1010, 749, 792, 833, 751, 785, 760, 854, 751, 729, 783, 769, 742, 725, 895, 1001, 770, 917, 765, 837, 760, 885, 761, 760, 932, 806, 773, 847, 1010, 816, 753, 870, 980, 921, 751, 752, 766, 824, 771, 748, 759, 751, 919, 911, 755, 1042, 760, 750, 873, 772, 753, 883, 771, 768, 777, 776, 825, 779, 787, 816, 890, 800, 794, 791, 789, 776, 799, 835, 788, 802, 937, 906, 799, 795, 781, 752, 755, 755, 766, 797, 775, 751, 877, 768, 768, 835, 737, 742, 936, 736, 749, 792, 842, 741, 901, 749, 803, 759, 786, 770, 745, 735, 735, 738, 944, 750, 745, 915, 757, 740, 752, 806, 946, 844, 752, 921, 820, 805, 738, 733, 733, 933, 749, 744, 786, 761, 847, 813, 736, 752, 920, 784, 746, 1062, 770, 745, 765, 928, 744, 815, 758, 752, 774, 737, 723, 741, 780, 869, 723, 874, 729, 721, 922, 754, 790, 788, 768, 882, 899, 719, 761, 819, 747, 767, 829, 813, 776, 760, 832, 828, 807, 788, 923, 778, 969, 782, 755, 753, 766, 991, 1020, 829, 1001, 776, 822, 1082, 807, 936, 786, 770, 1079, 943, 775, 767, 887, 1012, 908, 777, 774, 772, 933, 781, 779, 1064, 804, 1182, 804, 815, 953, 1162, 793, 784, 793, 796, 1015, 873, 802, 928, 801, 869, 949, 984, 827, 799, 794, 1117, 1036, 756, 756, 779, 755, 809, 772, 765, 796, 797, 1093, 906, 769, 762, 769, 811, 940, 769, 766, 888, 950, 768, 777, 771, 1150, 805, 840, 918, 958],
      "WindowCenter": [442.0, 442.0, 438.0, 438.0, 439.0, 438.0, 438.0, 438.0, 438.0, 437.0, 437.0, 437.0, 438.0, 438.0, 438.0, 440.0, 441.0, 438.0, 441.0, 438.0, 438.0, 438.0, 439.0, 439.0, 439.0, 441.0, 439.0, 438.0, 439.0, 440.0, 438.0, 437.0, 438.0, 439.0, 438.0, 436.0, 436.0, 436.0, 438.0, 438.0, 437.0, 438.0, 438.0, 441.0, 438.0, 436.0, 439.0, 436.0, 437.0, 438.0, 437.0, 438.0, 439.0, 438.0, 438.0, 438.0, 438.0, 439.0, 439.0, 439.0, 439.0, 439.0, 440.0, 439.0, 440.0, 442.0, 440.0, 441.0, 440.0, 439.0, 444.0, 447.0, 441.0, 440.0, 445.0, 441.0, 439.0, 439.0, 440.0, 440.0, 440.0, 441.0, 442.0, 441.0, 439.0, 439.0, 440.0, 437.0, 436.0, 440.0, 437.0, 437.0, 438.0, 438.0, 437.0, 440.0, 438.0, 438.0, 439.0, 439.0, 439.0, 438.0, 437.0, 437.0, 438.0, 440.0, 439.0, 438.0, 440.0, 438.0, 438.0, 438.0, 438.0, 440.0, 439.0, 438.0, 439.0, 438.0, 437.0, 436.0, 437.0, 438.0, 439.0, 438.0, 437.0, 438.0, 437.0, 438.0, 437.0, 437.0, 437.0, 439.0, 438.0, 438.0, 440.0, 438.0, 438.0, 438.0, 443.0, 442.0, 441.0, 441.0, 442.0, 443.0, 439.0, 438.0, 439.0, 439.0, 440.0, 438.0, 440.0, 439.0, 439.0, 441.0, 439.0, 439.0, 438.0, 438.0, 440.0, 439.0, 438.0, 438.0, 438.0, 437.0, 438.0, 440.0, 443.0, 438.0, 441.0, 442.0, 441.0, 439.0, 439.0, 439.0, 438.0, 440.0, 438.0, 438.0, 438.0, 439.0, 440.0, 440.0, 437.0, 439.0, 438.0, 438.0, 440.0, 436.0, 437.0, 437.0, 438.0, 440.0, 438.0, 436.0, 436.0, 438.0, 439.0, 438.0, 437.0, 437.0, 437.0, 439.0, 437.0, 438.0, 442.0, 439.0, 442.0, 440.0, 441.0, 440.0, 440.0, 438.0, 439.0, 440.0, 440.0, 442.0, 441.0, 440.0, 441.0, 440.0, 440.0, 440.0, 440.0, 439.0, 438.0, 439.0, 449.0, 442.0, 439.0, 439.0, 439.0, 441.0, 440.0, 439.0, 438.0, 439.0, 440.0, 442.0, 440.0, 438.0, 438.0, 438.0, 438.0, 439.0, 437.0, 437.0, 438.0, 439.0, 437.0, 438.0, 437.0, 440.0, 438.0, 440.0, 445.0, 440.0],
      "WindowWidth": [924.0, 923.0, 918.0, 917.0, 918.0, 917.0, 917.0, 916.0, 917.0, 915.0, 915.0, 916.0, 917.0, 918.0, 917.0, 920.0, 921.0, 917.0, 921.0, 917.0, 917.0, 917.0, 918.0, 918.0, 918.0, 922.0, 919.0, 918.0, 919.0, 920.0, 917.0, 916.0, 916.0, 917.0, 916.0, 914.0, 913.0, 913.0, 916.0, 916.0, 916.0, 917.0, 916.0, 921.0, 916.0, 914.0, 918.0, 914.0, 915.0, 916.0, 915.0, 916.0, 918.0, 917.0, 916.0, 916.0, 917.0, 918.0, 918.0, 918.0, 919.0, 919.0, 920.0, 919.0, 920.0, 925.0, 921.0, 922.0, 920.0, 918.0, 928.0, 935.0, 922.0, 919.0, 930.0, 923.0, 918.0, 918.0, 920.0, 921.0, 920.0, 921.0, 924.0, 923.0, 918.0, 919.0, 920.0, 915.0, 914.0, 919.0, 915.0, 915.0, 917.0, 917.0, 916.0, 920.0, 918.0, 918.0, 918.0, 918.0, 919.0, 917.0, 915.0, 915.0, 917.0, 919.0, 918.0, 917.0, 919.0, 917.0, 917.0, 916.0, 917.0, 920.0, 919.0, 917.0, 918.0, 916.0, 914.0, 914.0, 915.0, 917.0, 919.0, 916.0, 916.0, 916.0, 915.0, 917.0, 916.0, 915.0, 915.0, 918.0, 917.0, 916.0, 919.0, 916.0, 916.0, 917.0, 927.0, 925.0, 921.0, 922.0, 926.0, 926.0, 918.0, 916.0, 919.0, 920.0, 919.0, 917.0, 919.0, 918.0, 919.0, 922.0, 918.0, 918.0, 917.0, 916.0, 920.0, 919.0, 917.0, 916.0, 917.0, 915.0, 916.0, 921.0, 927.0, 916.0, 923.0, 924.0, 923.0, 918.0, 917.0, 918.0, 917.0, 919.0, 916.0, 916.0, 918.0, 918.0, 920.0, 919.0, 915.0, 918.0, 917.0, 917.0, 919.0, 913.0, 915.0, 914.0, 916.0, 919.0, 916.0, 913.0, 914.0, 917.0, 918.0, 916.0, 915.0, 915.0, 915.0, 917.0, 916.0, 916.0, 924.0, 919.0, 923.0, 921.0, 922.0, 921.0, 920.0, 916.0, 918.0, 920.0, 920.0, 923.0, 922.0, 921.0, 922.0, 920.0, 920.0, 920.0, 920.0, 918.0, 917.0, 919.0, 939.0, 924.0, 919.0, 920.0, 919.0, 922.0, 920.0, 918.0, 918.0, 919.0, 921.0, 922.0, 920.0, 917.0, 916.0, 916.0, 917.0, 918.0, 915.0, 915.0, 917.0, 917.0, 915.0, 916.0, 915.0, 920.0, 918.0, 922.0, 929.0, 920.0]
    },
    "slices": {}
  }
}