{
  "AcquisitionMatrixPE": 64,
  "AcquisitionNumber": 1,
  "AcquisitionTime": "16:26:52.205000",
  "BandwidthPerPixelPhaseEncode": 40.064,
  "BaseResolution": 64,
  "BodyPartExamined": "BRAIN",
  "ConsistencyInfo": "N4_VD13D_LATEST_20130810",
  "ConversionSoftware": "dcm2niix",
  "ConversionSoftwareVersion": "v1.0.20191031",
  "DerivedVendorReportedEchoSpacing": 0.000780002,
  "DeviceSerialNumber": "67007",
  "DwellTime": 5.3e-06,
  "EchoTime": 0.03,
  "EchoTrainLength": 31,
  "EffectiveEchoSpacing": 0.000390001,
  "FlipAngle": 75,
  "ImageOrientationPatientDICOM": [1, -2.00395e-10, 4.3693e-11, 2.05103e-10, 0.977046, -0.21303],
  "ImageType": [
    "ORIGINAL",
    "PRIMARY",
    "M",
    "ND",
    "NORM",
    "MOSAIC"
],
  "ImagingFrequency": 123.211,
  "InPlanePhaseEncodingDirectionDICOM": "ROW",
  "InstitutionAddress": "Perth_Drive_100_London_Ontario_CA_N6A_5K8",
  "InstitutionName": "Robarts-CFMM",
  "InstitutionalDepartmentName": "CFMM",
  "MRAcquisitionType": "2D",
  "MagneticFieldStrength": 3,
  "Manufacturer": "Siemens",
  "ManufacturersModelName": "Prisma_fit",
  "Modality": "MR",
  "ParallelReductionFactorInPlane": 2,
  "PartialFourier": 1,
  "PatientPosition": "HFS",
  "PercentPhaseFOV": 100,
  "PhaseEncodingDirection": "i",
  "PhaseEncodingSteps": 63,
  "PhaseResolution": 1,
  "PixelBandwidth": 1475,
  "ProcedureStepDescription": "Owen_Naci",
  "ProtocolName": "Resting_State",
  "PulseSequenceDetails": "%SiemensSeq%_ep2d_bold",
  "ReceiveCoilActiveElements": "HEA;HEP",
  "ReceiveCoilName": "Head_32",
  "ReconMatrixPE": 64,
  "RefLinesPE": 24,
  "RepetitionTime": 2,
  "SAR": 0.0813432,
  "ScanOptions": "FS",
  "ScanningSequence": "EP",
  "SequenceName": "_epfid2d1_64",
  "SequenceVariant": "SK",
  "SeriesDescription": "Resting_State",
  "SeriesNumber": 7,
  "ShimSetting": [5242, -6117, -3817, 297, -14, 115, -82, 6],
  "SliceThickness": 3,
  "SliceTiming": [1.92, 1.86, 1.8, 1.74, 1.68, 1.62, 1.56, 1.5, 1.44, 1.38, 1.32, 1.26, 1.2, 1.14, 1.08, 1.02, 0.96, 0.9, 0.84, 0.78, 0.72, 0.66, 0.6, 0.54, 0.48, 0.42, 0.36, 0.3, 0.24, 0.18, 0.12, 0.06, 0],
  "SoftwareVersions": "syngo_MR_D13D",
  "SpacingBetweenSlices": 3.75,
  "StationName": "AWP67007",
  "TaskName": "rest",
  "TotalReadoutTime": 0.0245701,
  "TxRefAmp": 257.03,
  "dcmmeta_affine": [
    [-3.0, 6.153090259530813e-10, -6.51852468707472e-16, 99.65092468261719],
    [6.01184990678405e-10, 2.9311366081237793, -0.7988640069961548, -67.37769317626953],
    [1.31078994880518e-10, 0.6390911936759949, 3.6639208793640137, -56.40758514404297],
    [0.0, 0.0, 0.0, 1.0]
],
  "dcmmeta_reorient_transform": [
    [0.0, -1.0, 0.0, 63.0],
    [1.0, 0.0, 0.0, 0.0],
    [0.0, 0.0, 1.0, 0.0],
    [0.0, 0.0, 0.0, 1.0]
],
  "dcmmeta_shape": [64, 64, 33, 256],
  "dcmmeta_slice_dim": 2,
  "dcmmeta_version": 0.6,
  "global": {
    "const": {
      "AcquisitionMatrix": [0, 64, 64, 0],
      "AngioFlag": "N",
      "BitsAllocated": 16,
      "BitsStored": 12,
      "BodyPartExamined": "BRAIN",
      "Columns": 384,
      "EchoNumbers": 1,
      "EchoTime": 30.0,
      "EchoTrainLength": 31,
      "FlipAngle": 75.0,
      "HighBit": 11,
      "ImageOrientationPatient": [1.0, -2.00395e-10, 4.3693e-11, 2.05103e-10, 0.97704557251007, -0.2130303951047],
      "ImagePositionPatient": [-579.65092718494, -586.2657984785, 86.109751024373],
      "ImageType": [
        "ORIGINAL",
        "PRIMARY",
        "M",
        "ND",
        "NORM",
        "MOSAIC"
],
      "ImagedNucleus": "1H",
      "ImagingFrequency": 123.210985,
      "InPlanePhaseEncodingDirection": "ROW",
      "MRAcquisitionType": "2D",
      "MagneticFieldStrength": 3.0,
      "Manufacturer": "SIEMENS",
      "ManufacturerModelName": "Prisma_fit",
      "Modality": "MR",
      "NumberOfAverages": 1.0,
      "NumberOfPhaseEncodingSteps": 63,
      "PercentPhaseFieldOfView": 100.0,
      "PercentSampling": 100.0,
      "PerformedProcedureStepStartTime": "150817.850000",
      "PhotometricInterpretation": "MONOCHROME2",
      "PixelBandwidth": 1475.0,
      "PixelRepresentation": 0,
      "PixelSpacing": [3.0, 3.0],
      "ProtocolName": "Resting State",
      "RepetitionTime": 2000.0,
      "Rows": 384,
      "SAR": 0.08134317669938,
      "SamplesPerPixel": 1,
      "ScanOptions": "FS",
      "ScanningSequence": "EP",
      "SequenceName": "*epfid2d1_64",
      "SequenceVariant": "SK",
      "SeriesDescription": "Resting State",
      "SeriesNumber": 7,
      "SeriesTime": "162741.531000",
      "SliceLocation": -40.759283697934,
      "SliceThickness": 3.0,
      "SmallestImagePixelValue": 0,
      "SoftwareVersions": "syngo MR D13D",
      "SpacingBetweenSlices": 3.7499999803191,
      "SpecificCharacterSet": "ISO_IR 100",
      "StudyID": "1",
      "StudyTime": "150817.803000",
      "TimeOfLastCalibration": ["123723.000000", "123723.000000"],
      "TransmitCoilName": "Body",
      "VariableFlipAngleFlag": "N",
      "WindowCenterWidthExplanation": "Algo1",
      "dBdt": 0.0},
    "slices": {}
  },
  "time": {
    "samples": {
      "AcquisitionNumber": [1, 2, 3, 4, 5, 6, 7, 8, 9, 10, 11, 12, 13, 14, 15, 16, 17, 18, 19, 20, 21, 22, 23, 24, 25, 26, 27, 28, 29, 30, 31, 32, 33, 34, 35, 36, 37, 38, 39, 40, 41, 42, 43, 44, 45, 46, 47, 48, 49, 50, 51, 52, 53, 54, 55, 56, 57, 58, 59, 60, 61, 62, 63, 64, 65, 66, 67, 68, 69, 70, 71, 72, 73, 74, 75, 76, 77, 78, 79, 80, 81, 82, 83, 84, 85, 86, 87, 88, 89, 90, 91, 92, 93, 94, 95, 96, 97, 98, 99, 100, 101, 102, 103, 104, 105, 106, 107, 108, 109, 110, 111, 112, 113, 114, 115, 116, 117, 118, 119, 120, 121, 122, 123, 124, 125, 126, 127, 128, 129, 130, 131, 132, 133, 134, 135, 136, 137, 138, 139, 140, 141, 142, 143, 144, 145, 146, 147, 148, 149, 150, 151, 152, 153, 154, 155, 156, 157, 158, 159, 160, 161, 162, 163, 164, 165, 166, 167, 168, 169, 170, 171, 172, 173, 174, 175, 176, 177, 178, 179, 180, 181, 182, 183, 184, 185, 186, 187, 188, 189, 190, 191, 192, 193, 194, 195, 196, 197, 198, 199, 200, 201, 202, 203, 204, 205, 206, 207, 208, 209, 210, 211, 212, 213, 214, 215, 216, 217, 218, 219, 220, 221, 222, 223, 224, 225, 226, 227, 228, 229, 230, 231, 232, 233, 234, 235, 236, 237, 238, 239, 240, 241, 242, 243, 244, 245, 246, 247, 248, 249, 250, 251, 252, 253, 254, 255, 256],
      "AcquisitionTime": ["162652.205000", "162654.205000", "162656.205000", "162658.205000", "162700.205000", "162702.205000", "162704.205000", "162706.205000", "162708.205000", "162710.205000", "162712.205000", "162714.205000", "162716.205000", "162718.205000", "162720.205000", "162722.205000", "162724.205000", "162726.205000", "162728.205000", "162730.205000", "162732.205000", "162734.205000", "162736.205000", "162738.205000", "162740.205000", "162742.205000", "162744.205000", "162746.205000", "162748.205000", "162750.205000", "162752.205000", "162754.205000", "162756.205000", "162758.205000", "162800.205000", "162802.205000", "162804.205000", "162806.205000", "162808.205000", "162810.205000", "162812.205000", "162814.205000", "162816.205000", "162818.205000", "162820.205000", "162822.205000", "162824.205000", "162826.205000", "162828.205000", "162830.205000", "162832.205000", "162834.205000", "162836.205000", "162838.205000", "162840.205000", "162842.205000", "162844.205000", "162846.205000", "162848.205000", "162850.205000", "162852.205000", "162854.205000", "162856.205000", "162858.205000", "162900.205000", "162902.205000", "162904.205000", "162906.205000", "162908.205000", "162910.205000", "162912.205000", "162914.205000", "162916.205000", "162918.205000", "162920.205000", "162922.205000", "162924.205000", "162926.205000", "162928.205000", "162930.205000", "162932.205000", "162934.205000", "162936.205000", "162938.205000", "162940.205000", "162942.205000", "162944.205000", "162946.205000", "162948.205000", "162950.205000", "162952.205000", "162954.205000", "162956.205000", "162958.205000", "163000.205000", "163002.205000", "163004.205000", "163006.205000", "163008.205000", "163010.205000", "163012.205000", "163014.205000", "163016.205000", "163018.205000", "163020.205000", "163022.205000", "163024.205000", "163026.205000", "163028.205000", "163030.205000", "163032.205000", "163034.205000", "163036.205000", "163038.205000", "163040.205000", "163042.205000", "163044.205000", "163046.205000", "163048.205000", "163050.205000", "163052.205000", "163054.205000", "163056.205000", "163058.205000", "163100.205000", "163102.205000", "163104.205000", "163106.205000", "163108.205000", "163110.205000", "163112.205000", "163114.205000", "163116.205000", "163118.205000", "163120.205000", "163122.205000", "163124.205000", "163126.205000", "163128.205000", "163130.205000", "163132.205000", "163134.205000", "163136.205000", "163138.205000", "163140.205000", "163142.205000", "163144.205000", "163146.205000", "163148.205000", "163150.205000", "163152.205000", "163154.205000", "163156.205000", "163158.205000", "163200.205000", "163202.205000", "163204.205000", "163206.205000", "163208.205000", "163210.205000", "163212.205000", "163214.205000", "163216.205000", "163218.205000", "163220.205000", "163222.205000", "163224.205000", "163226.205000", "163228.205000", "163230.205000", "163232.205000", "163234.205000", "163236.205000", "163238.205000", "163240.205000", "163242.205000", "163244.205000", "163246.205000", "163248.205000", "163250.205000", "163252.205000", "163254.205000", "163256.205000", "163258.205000", "163300.205000", "163302.205000", "163304.205000", "163306.205000", "163308.205000", "163310.205000", "163312.205000", "163314.205000", "163316.205000", "163318.205000", "163320.205000", "163322.205000", "163324.205000", "163326.205000", "163328.205000", "163330.205000", "163332.205000", "163334.205000", "163336.205000", "163338.205000", "163340.205000", "163342.205000", "163344.205000", "163346.205000", "163348.205000", "163350.205000", "163352.205000", "163354.205000", "163356.205000", "163358.205000", "163400.205000", "163402.205000", "163404.205000", "163406.205000", "163408.207500", "163410.207500", "163412.207500", "163414.207500", "163416.207500", "163418.207500", "163420.207500", "163422.207500", "163424.207500", "163426.207500", "163428.207500", "163430.207500", "163432.207500", "163434.207500", "163436.207500", "163438.207500", "163440.207500", "163442.207500", "163444.207500", "163446.207500", "163448.207500", "163450.207500", "163452.207500", "163454.207500", "163456.207500", "163458.207500", "163500.207500", "163502.207500", "163504.207500", "163506.207500", "163508.207500", "163510.207500", "163512.207500", "163514.207500", "163516.207500", "163518.207500", "163520.207500", "163522.207500"],
      "ContentTime": ["162741.536000", "162741.541000", "162741.544000", "162741.547000", "162741.549000", "162741.552000", "162741.555000", "162741.558000", "162741.561000", "162741.564000", "162741.567000", "162741.570000", "162741.572000", "162741.575000", "162741.579000", "162741.582000", "162741.585000", "162741.588000", "162741.590000", "162741.593000", "162741.597000", "162741.599000", "162741.602000", "162741.605000", "162741.608000", "162821.522000", "162821.526000", "162821.529000", "162821.532000", "162821.534000", "162821.537000", "162821.540000", "162821.543000", "162821.546000", "162821.549000", "162821.552000", "162821.555000", "162821.558000", "162821.561000", "162821.564000", "162821.567000", "162821.569000", "162821.572000", "162821.575000", "162821.578000", "162901.522000", "162901.525000", "162901.528000", "162901.531000", "162901.534000", "162901.537000", "162901.540000", "162901.543000", "162901.546000", "162901.549000", "162901.551000", "162901.554000", "162901.557000", "162901.560000", "162901.563000", "162901.566000", "162901.569000", "162901.572000", "162901.575000", "162901.578000", "162941.522000", "162941.525000", "162941.528000", "162941.531000", "162941.534000", "162941.537000", "162941.540000", "162941.543000", "162941.545000", "162941.549000", "162941.552000", "162941.554000", "162941.557000", "162941.560000", "162941.564000", "162941.566000", "162941.569000", "162941.572000", "162941.575000", "162941.578000", "163021.521000", "163021.525000", "163021.528000", "163021.531000", "163021.534000", "163021.537000", "163021.540000", "163021.542000", "163021.545000", "163021.548000", "163021.551000", "163021.554000", "163021.557000", "163021.560000", "163021.563000", "163021.566000", "163021.569000", "163021.572000", "163021.575000", "163021.578000", "163101.520000", "163101.524000", "163101.527000", "163101.530000", "163101.533000", "163101.535000", "163101.538000", "163101.541000", "163101.544000", "163101.547000", "163101.550000", "163101.552000", "163101.556000", "163101.558000", "163101.561000", "163101.564000", "163101.567000", "163101.570000", "163101.573000", "163101.576000", "163141.520000", "163141.524000", "163141.527000", "163141.529000", "163141.532000", "163141.535000", "163141.538000", "163141.541000", "163141.544000", "163141.547000", "163141.550000", "163141.552000", "163141.555000", "163141.558000", "163141.561000", "163141.564000", "163141.567000", "163141.570000", "163141.573000", "163141.576000", "163221.521000", "163221.525000", "163221.528000", "163221.530000", "163221.533000", "163221.536000", "163221.539000", "163221.541000", "163221.544000", "163221.547000", "163221.557000", "163221.560000", "163221.563000", "163221.566000", "163221.572000", "163221.575000", "163221.577000", "163221.580000", "163221.584000", "163221.587000", "163301.521000", "163301.525000", "163301.528000", "163301.531000", "163301.533000", "163301.536000", "163301.539000", "163301.542000", "163301.545000", "163301.548000", "163301.551000", "163301.554000", "163301.557000", "163301.560000", "163301.563000", "163301.566000", "163301.569000", "163301.571000", "163301.574000", "163301.577000", "163341.521000", "163341.524000", "163341.528000", "163341.531000", "163341.533000", "163341.536000", "163341.539000", "163341.542000", "163341.545000", "163341.548000", "163341.553000", "163341.556000", "163341.558000", "163341.561000", "163341.564000", "163341.567000", "163341.570000", "163341.573000", "163341.576000", "163341.578000", "163421.520000", "163421.523000", "163421.526000", "163421.529000", "163421.532000", "163421.535000", "163421.537000", "163421.540000", "163421.543000", "163421.546000", "163421.549000", "163421.552000", "163421.555000", "163421.558000", "163421.561000", "163421.564000", "163421.567000", "163421.569000", "163421.572000", "163421.575000", "163501.520000", "163501.523000", "163501.530000", "163501.533000", "163501.536000", "163501.539000", "163501.542000", "163501.545000", "163501.548000", "163501.551000", "163501.554000", "163501.557000", "163501.560000", "163501.562000", "163501.566000", "163501.568000", "163501.571000", "163501.574000", "163501.577000", "163501.579000", "163522.943000", "163522.947000", "163522.951000", "163522.953000", "163522.957000", "163522.960000", "163522.963000", "163522.966000", "163522.969000", "163522.972000", "163522.978000"],
      "InstanceCreationTime": ["162741.536000", "162741.541000", "162741.544000", "162741.547000", "162741.549000", "162741.552000", "162741.555000", "162741.558000", "162741.561000", "162741.564000", "162741.567000", "162741.570000", "162741.572000", "162741.575000", "162741.579000", "162741.582000", "162741.585000", "162741.588000", "162741.590000", "162741.593000", "162741.597000", "162741.599000", "162741.602000", "162741.605000", "162741.608000", "162821.522000", "162821.526000", "162821.529000", "162821.532000", "162821.534000", "162821.537000", "162821.540000", "162821.543000", "162821.546000", "162821.549000", "162821.552000", "162821.555000", "162821.558000", "162821.561000", "162821.564000", "162821.567000", "162821.569000", "162821.572000", "162821.575000", "162821.578000", "162901.522000", "162901.525000", "162901.528000", "162901.531000", "162901.534000", "162901.537000", "162901.540000", "162901.543000", "162901.546000", "162901.549000", "162901.551000", "162901.554000", "162901.557000", "162901.560000", "162901.563000", "162901.566000", "162901.569000", "162901.572000", "162901.575000", "162901.578000", "162941.522000", "162941.525000", "162941.528000", "162941.531000", "162941.534000", "162941.537000", "162941.540000", "162941.543000", "162941.545000", "162941.549000", "162941.552000", "162941.554000", "162941.557000", "162941.560000", "162941.564000", "162941.566000", "162941.569000", "162941.572000", "162941.575000", "162941.578000", "163021.521000", "163021.525000", "163021.528000", "163021.531000", "163021.534000", "163021.537000", "163021.540000", "163021.542000", "163021.545000", "163021.548000", "163021.551000", "163021.554000", "163021.557000", "163021.560000", "163021.563000", "163021.566000", "163021.569000", "163021.572000", "163021.575000", "163021.578000", "163101.520000", "163101.524000", "163101.527000", "163101.530000", "163101.533000", "163101.535000", "163101.538000", "163101.541000", "163101.544000", "163101.547000", "163101.550000", "163101.552000", "163101.556000", "163101.558000", "163101.561000", "163101.564000", "163101.567000", "163101.570000", "163101.573000", "163101.576000", "163141.520000", "163141.524000", "163141.527000", "163141.529000", "163141.532000", "163141.535000", "163141.538000", "163141.541000", "163141.544000", "163141.547000", "163141.550000", "163141.552000", "163141.555000", "163141.558000", "163141.561000", "163141.564000", "163141.567000", "163141.570000", "163141.573000", "163141.576000", "163221.521000", "163221.525000", "163221.528000", "163221.530000", "163221.533000", "163221.536000", "163221.539000", "163221.541000", "163221.544000", "163221.547000", "163221.557000", "163221.560000", "163221.563000", "163221.566000", "163221.572000", "163221.575000", "163221.577000", "163221.580000", "163221.584000", "163221.587000", "163301.521000", "163301.525000", "163301.528000", "163301.531000", "163301.533000", "163301.536000", "163301.539000", "163301.542000", "163301.545000", "163301.548000", "163301.551000", "163301.554000", "163301.557000", "163301.560000", "163301.563000", "163301.566000", "163301.569000", "163301.571000", "163301.574000", "163301.577000", "163341.521000", "163341.524000", "163341.528000", "163341.531000", "163341.533000", "163341.536000", "163341.539000", "163341.542000", "163341.545000", "163341.548000", "163341.553000", "163341.556000", "163341.558000", "163341.561000", "163341.564000", "163341.567000", "163341.570000", "163341.573000", "163341.576000", "163341.578000", "163421.520000", "163421.523000", "163421.526000", "163421.529000", "163421.532000", "163421.535000", "163421.537000", "163421.540000", "163421.543000", "163421.546000", "163421.549000", "163421.552000", "163421.555000", "163421.558000", "163421.561000", "163421.564000", "163421.567000", "163421.569000", "163421.572000", "163421.575000", "163501.520000", "163501.523000", "163501.530000", "163501.533000", "163501.536000", "163501.539000", "163501.542000", "163501.545000", "163501.548000", "163501.551000", "163501.554000", "163501.557000", "163501.560000", "163501.562000", "163501.566000", "163501.568000", "163501.571000", "163501.574000", "163501.577000", "163501.579000", "163522.943000", "163522.947000", "163522.951000", "163522.953000", "163522.957000", "163522.960000", "163522.963000", "163522.966000", "163522.969000", "163522.972000", "163522.978000"],
      "InstanceNumber": [1, 2, 3, 4, 5, 6, 7, 8, 9, 10, 11, 12, 13, 14, 15, 16, 17, 18, 19, 20, 21, 22, 23, 24, 25, 26, 27, 28, 29, 30, 31, 32, 33, 34, 35, 36, 37, 38, 39, 40, 41, 42, 43, 44, 45, 46, 47, 48, 49, 50, 51, 52, 53, 54, 55, 56, 57, 58, 59, 60, 61, 62, 63, 64, 65, 66, 67, 68, 69, 70, 71, 72, 73, 74, 75, 76, 77, 78, 79, 80, 81, 82, 83, 84, 85, 86, 87, 88, 89, 90, 91, 92, 93, 94, 95, 96, 97, 98, 99, 100, 101, 102, 103, 104, 105, 106, 107, 108, 109, 110, 111, 112, 113, 114, 115, 116, 117, 118, 119, 120, 121, 122, 123, 124, 125, 126, 127, 128, 129, 130, 131, 132, 133, 134, 135, 136, 137, 138, 139, 140, 141, 142, 143, 144, 145, 146, 147, 148, 149, 150, 151, 152, 153, 154, 155, 156, 157, 158, 159, 160, 161, 162, 163, 164, 165, 166, 167, 168, 169, 170, 171, 172, 173, 174, 175, 176, 177, 178, 179, 180, 181, 182, 183, 184, 185, 186, 187, 188, 189, 190, 191, 192, 193, 194, 195, 196, 197, 198, 199, 200, 201, 202, 203, 204, 205, 206, 207, 208, 209, 210, 211, 212, 213, 214, 215, 216, 217, 218, 219, 220, 221, 222, 223, 224, 225, 226, 227, 228, 229, 230, 231, 232, 233, 234, 235, 236, 237, 238, 239, 240, 241, 242, 243, 244, 245, 246, 247, 248, 249, 250, 251, 252, 253, 254, 255, 256],
      "LargestImagePixelValue": [1071, 782, 782, 737, 798, 823, 1003, 747, 975, 759, 776, 895, 984, 849, 903, 792, 816, 850, 818, 870, 805, 815, 774, 899, 1022, 799, 827, 763, 867, 810, 863, 864, 821, 907, 757, 937, 766, 987, 756, 986, 775, 944, 820, 830, 783, 798, 867, 769, 971, 755, 897, 759, 878, 755, 843, 922, 827, 783, 944, 923, 802, 727, 1063, 972, 739, 891, 729, 893, 790, 915, 910, 828, 970, 739, 954, 949, 726, 918, 742, 1023, 751, 851, 833, 740, 970, 730, 788, 980, 806, 734, 991, 768, 867, 838, 834, 909, 755, 849, 888, 832, 844, 871, 779, 824, 797, 741, 819, 744, 837, 764, 960, 752, 966, 729, 907, 768, 1002, 787, 829, 764, 817, 753, 834, 732, 837, 836, 968, 773, 889, 746, 835, 815, 968, 781, 783, 983, 757, 805, 814, 764, 930, 751, 890, 745, 938, 760, 913, 761, 872, 748, 809, 817, 761, 816, 746, 885, 755, 806, 754, 816, 812, 815, 829, 775, 800, 769, 779, 877, 764, 903, 764, 972, 762, 873, 760, 848, 756, 864, 751, 933, 757, 989, 749, 914, 767, 867, 758, 868, 757, 891, 744, 940, 755, 743, 839, 745, 886, 730, 857, 744, 907, 757, 810, 806, 761, 824, 744, 816, 821, 783, 890, 757, 924, 760, 898, 765, 901, 756, 917, 752, 813, 796, 783, 883, 771, 936, 772, 885, 743, 812, 745, 801, 780, 907, 745, 793, 909, 750, 806, 824, 773, 888, 744, 788, 809, 766, 764, 906, 753, 838, 819, 771, 897, 747, 792, 780],
      "WindowCenter": [439.0, 435.0, 435.0, 434.0, 437.0, 436.0, 437.0, 434.0, 436.0, 434.0, 435.0, 437.0, 436.0, 434.0, 434.0, 434.0, 435.0, 435.0, 435.0, 435.0, 434.0, 433.0, 433.0, 435.0, 434.0, 433.0, 433.0, 433.0, 434.0, 433.0, 434.0, 434.0, 433.0, 434.0, 433.0, 434.0, 433.0, 436.0, 433.0, 435.0, 434.0, 434.0, 434.0, 434.0, 434.0, 434.0, 435.0, 434.0, 436.0, 434.0, 435.0, 434.0, 435.0, 433.0, 435.0, 435.0, 435.0, 434.0, 436.0, 434.0, 435.0, 435.0, 438.0, 435.0, 433.0, 436.0, 435.0, 437.0, 435.0, 437.0, 437.0, 435.0, 436.0, 434.0, 436.0, 434.0, 433.0, 436.0, 434.0, 436.0, 435.0, 436.0, 436.0, 435.0, 437.0, 435.0, 436.0, 437.0, 436.0, 434.0, 437.0, 434.0, 436.0, 435.0, 435.0, 435.0, 434.0, 436.0, 435.0, 435.0, 435.0, 435.0, 434.0, 434.0, 435.0, 434.0, 435.0, 435.0, 435.0, 435.0, 437.0, 435.0, 436.0, 434.0, 436.0, 435.0, 436.0, 435.0, 435.0, 434.0, 435.0, 434.0, 435.0, 433.0, 436.0, 436.0, 437.0, 434.0, 435.0, 435.0, 435.0, 435.0, 436.0, 435.0, 434.0, 436.0, 434.0, 435.0, 436.0, 435.0, 437.0, 435.0, 437.0, 435.0, 437.0, 436.0, 437.0, 435.0, 436.0, 435.0, 435.0, 436.0, 435.0, 436.0, 435.0, 438.0, 436.0, 436.0, 436.0, 437.0, 436.0, 436.0, 436.0, 435.0, 436.0, 436.0, 436.0, 437.0, 436.0, 437.0, 435.0, 437.0, 435.0, 436.0, 435.0, 435.0, 436.0, 436.0, 434.0, 436.0, 434.0, 436.0, 434.0, 436.0, 435.0, 435.0, 434.0, 436.0, 434.0, 435.0, 434.0, 436.0, 434.0, 434.0, 435.0, 434.0, 436.0, 434.0, 435.0, 434.0, 435.0, 434.0, 435.0, 435.0, 433.0, 435.0, 433.0, 435.0, 435.0, 434.0, 435.0, 434.0, 436.0, 434.0, 436.0, 434.0, 435.0, 434.0, 436.0, 435.0, 435.0, 435.0, 435.0, 436.0, 434.0, 436.0, 434.0, 435.0, 434.0, 435.0, 434.0, 434.0, 434.0, 436.0, 434.0, 435.0, 435.0, 434.0, 435.0, 435.0, 435.0, 436.0, 435.0, 436.0, 436.0, 436.0, 435.0, 437.0, 437.0, 437.0, 436.0, 436.0, 438.0, 436.0, 437.0, 437.0],
      "WindowWidth": [918.0, 911.0, 912.0, 911.0, 914.0, 913.0, 915.0, 909.0, 913.0, 910.0, 911.0, 914.0, 913.0, 909.0, 910.0, 909.0, 910.0, 910.0, 911.0, 911.0, 909.0, 908.0, 908.0, 910.0, 909.0, 908.0, 908.0, 908.0, 909.0, 908.0, 908.0, 909.0, 908.0, 909.0, 907.0, 909.0, 908.0, 911.0, 908.0, 910.0, 909.0, 910.0, 910.0, 909.0, 909.0, 909.0, 911.0, 910.0, 913.0, 909.0, 911.0, 910.0, 912.0, 908.0, 912.0, 911.0, 911.0, 910.0, 912.0, 910.0, 910.0, 912.0, 916.0, 911.0, 907.0, 912.0, 911.0, 914.0, 912.0, 914.0, 915.0, 911.0, 913.0, 910.0, 913.0, 910.0, 908.0, 913.0, 910.0, 913.0, 911.0, 913.0, 913.0, 912.0, 915.0, 912.0, 913.0, 913.0, 912.0, 910.0, 915.0, 910.0, 912.0, 911.0, 911.0, 911.0, 910.0, 912.0, 911.0, 911.0, 911.0, 911.0, 909.0, 910.0, 911.0, 909.0, 912.0, 911.0, 912.0, 911.0, 914.0, 911.0, 913.0, 909.0, 913.0, 911.0, 912.0, 911.0, 910.0, 910.0, 911.0, 910.0, 912.0, 909.0, 913.0, 913.0, 914.0, 910.0, 911.0, 912.0, 912.0, 911.0, 912.0, 911.0, 910.0, 913.0, 910.0, 911.0, 913.0, 911.0, 915.0, 911.0, 914.0, 912.0, 915.0, 914.0, 914.0, 911.0, 913.0, 912.0, 912.0, 913.0, 911.0, 913.0, 912.0, 916.0, 913.0, 914.0, 913.0, 915.0, 913.0, 913.0, 912.0, 911.0, 912.0, 913.0, 914.0, 914.0, 913.0, 914.0, 912.0, 915.0, 912.0, 913.0, 911.0, 912.0, 912.0, 913.0, 910.0, 912.0, 910.0, 913.0, 910.0, 912.0, 911.0, 912.0, 910.0, 912.0, 910.0, 911.0, 909.0, 912.0, 910.0, 909.0, 912.0, 910.0, 913.0, 910.0, 912.0, 910.0, 911.0, 910.0, 910.0, 911.0, 909.0, 910.0, 909.0, 911.0, 910.0, 909.0, 911.0, 910.0, 913.0, 910.0, 913.0, 910.0, 912.0, 910.0, 912.0, 911.0, 911.0, 911.0, 911.0, 913.0, 910.0, 913.0, 909.0, 912.0, 909.0, 911.0, 910.0, 910.0, 909.0, 912.0, 910.0, 911.0, 911.0, 911.0, 911.0, 912.0, 911.0, 913.0, 912.0, 912.0, 912.0, 913.0, 912.0, 915.0, 914.0, 915.0, 914.0, 914.0, 916.0, 913.0, 914.0, 914.0]
    },
    "slices": {}
  }
}