{
  "AcquisitionMatrixPE": 64,
  "AcquisitionNumber": 1,
  "AcquisitionTime": "17:06:28.157500",
  "BandwidthPerPixelPhaseEncode": 40.064,
  "BaseResolution": 64,
  "BodyPartExamined": "BRAIN",
  "ConsistencyInfo": "N4_VD13D_LATEST_20130810",
  "ConversionSoftware": "dcm2niix",
  "ConversionSoftwareVersion": "v1.0.20191031",
  "DerivedVendorReportedEchoSpacing": 0.000780002,
  "DeviceSerialNumber": "67007",
  "DwellTime": 5.3e-06,
  "EchoTime": 0.03,
  "EchoTrainLength": 31,
  "EffectiveEchoSpacing": 0.000390001,
  "FlipAngle": 75,
  "ImageOrientationPatientDICOM": [1, -2.00395e-10, 4.3693e-11, 2.05103e-10, 0.977046, -0.21303],
  "ImageType": [
    "ORIGINAL",
    "PRIMARY",
    "M",
    "ND",
    "NORM",
    "MOSAIC"
],
  "ImagingFrequency": 123.211,
  "InPlanePhaseEncodingDirectionDICOM": "ROW",
  "InstitutionAddress": "Perth_Drive_100_London_Ontario_CA_N6A_5K8",
  "InstitutionName": "Robarts-CFMM",
  "InstitutionalDepartmentName": "CFMM",
  "MRAcquisitionType": "2D",
  "MagneticFieldStrength": 3,
  "Manufacturer": "Siemens",
  "ManufacturersModelName": "Prisma_fit",
  "Modality": "MR",
  "ParallelReductionFactorInPlane": 2,
  "PartialFourier": 1,
  "PatientPosition": "HFS",
  "PercentPhaseFOV": 100,
  "PhaseEncodingDirection": "i",
  "PhaseEncodingSteps": 63,
  "PhaseResolution": 1,
  "PixelBandwidth": 1475,
  "ProcedureStepDescription": "Owen_Naci",
  "ProtocolName": "Resting_State_light_sed",
  "PulseSequenceDetails": "%SiemensSeq%_ep2d_bold",
  "ReceiveCoilActiveElements": "HEA;HEP",
  "ReceiveCoilName": "Head_32",
  "ReconMatrixPE": 64,
  "RefLinesPE": 24,
  "RepetitionTime": 2,
  "SAR": 0.0813432,
  "ScanOptions": "FS",
  "ScanningSequence": "EP",
  "SequenceName": "_epfid2d1_64",
  "SequenceVariant": "SK",
  "SeriesDescription": "Resting_State_light_sed",
  "SeriesNumber": 13,
  "ShimSetting": [5242, -6117, -3817, 297, -14, 115, -82, 6],
  "SliceThickness": 3,
  "SliceTiming": [1.92, 1.86, 1.8, 1.74, 1.68, 1.62, 1.56, 1.5, 1.44, 1.38, 1.32, 1.26, 1.2, 1.14, 1.08, 1.02, 0.96, 0.9, 0.84, 0.78, 0.72, 0.66, 0.6, 0.54, 0.48, 0.42, 0.36, 0.3, 0.24, 0.18, 0.12, 0.06, 0],
  "SoftwareVersions": "syngo_MR_D13D",
  "SpacingBetweenSlices": 3.75,
  "StationName": "AWP67007",
  "TaskName": "restlight",
  "TotalReadoutTime": 0.0245701,
  "TxRefAmp": 257.03,
  "dcmmeta_affine": [
    [-3.0, 6.153090259530813e-10, -6.51852468707472e-16, 99.65092468261719],
    [6.01184990678405e-10, 2.9311366081237793, -0.7988640069961548, -67.37769317626953],
    [1.31078994880518e-10, 0.6390911936759949, 3.6639208793640137, -56.40758514404297],
    [0.0, 0.0, 0.0, 1.0]
],
  "dcmmeta_reorient_transform": [
    [0.0, -1.0, 0.0, 63.0],
    [1.0, 0.0, 0.0, 0.0],
    [0.0, 0.0, 1.0, 0.0],
    [0.0, 0.0, 0.0, 1.0]
],
  "dcmmeta_shape": [64, 64, 33, 256],
  "dcmmeta_slice_dim": 2,
  "dcmmeta_version": 0.6,
  "global": {
    "const": {
      "AcquisitionMatrix": [0, 64, 64, 0],
      "AngioFlag": "N",
      "BitsAllocated": 16,
      "BitsStored": 12,
      "BodyPartExamined": "BRAIN",
      "Columns": 384,
      "EchoNumbers": 1,
      "EchoTime": 30.0,
      "EchoTrainLength": 31,
      "FlipAngle": 75.0,
      "HighBit": 11,
      "ImageOrientationPatient": [1.0, -2.00395e-10, 4.3693e-11, 2.05103e-10, 0.97704557251007, -0.2130303951047],
      "ImagePositionPatient": [-579.65092718494, -586.2657984785, 86.109751024373],
      "ImageType": [
        "ORIGINAL",
        "PRIMARY",
        "M",
        "ND",
        "NORM",
        "MOSAIC"
],
      "ImagedNucleus": "1H",
      "ImagingFrequency": 123.210988,
      "InPlanePhaseEncodingDirection": "ROW",
      "MRAcquisitionType": "2D",
      "MagneticFieldStrength": 3.0,
      "Manufacturer": "SIEMENS",
      "ManufacturerModelName": "Prisma_fit",
      "Modality": "MR",
      "NumberOfAverages": 1.0,
      "NumberOfPhaseEncodingSteps": 63,
      "PercentPhaseFieldOfView": 100.0,
      "PercentSampling": 100.0,
      "PerformedProcedureStepStartTime": "150817.850000",
      "PhotometricInterpretation": "MONOCHROME2",
      "PixelBandwidth": 1475.0,
      "PixelRepresentation": 0,
      "PixelSpacing": [3.0, 3.0],
      "ProtocolName": "Resting State_light sed",
      "RepetitionTime": 2000.0,
      "Rows": 384,
      "SAR": 0.08134317669938,
      "SamplesPerPixel": 1,
      "ScanOptions": "FS",
      "ScanningSequence": "EP",
      "SequenceName": "*epfid2d1_64",
      "SequenceVariant": "SK",
      "SeriesDescription": "Resting State_light sed",
      "SeriesNumber": 13,
      "SeriesTime": "170721.525000",
      "SliceLocation": -40.759283697934,
      "SliceThickness": 3.0,
      "SmallestImagePixelValue": 0,
      "SoftwareVersions": "syngo MR D13D",
      "SpacingBetweenSlices": 3.7499999803191,
      "SpecificCharacterSet": "ISO_IR 100",
      "StudyID": "1",
      "StudyTime": "150817.803000",
      "TimeOfLastCalibration": ["123723.000000", "123723.000000"],
      "TransmitCoilName": "Body",
      "VariableFlipAngleFlag": "N",
      "WindowCenterWidthExplanation": "Algo1",
      "dBdt": 0.0},
    "slices": {}
  },
  "time": {
    "samples": {
      "AcquisitionNumber": [1, 2, 3, 4, 5, 6, 7, 8, 9, 10, 11, 12, 13, 14, 15, 16, 17, 18, 19, 20, 21, 22, 23, 24, 25, 26, 27, 28, 29, 30, 31, 32, 33, 34, 35, 36, 37, 38, 39, 40, 41, 42, 43, 44, 45, 46, 47, 48, 49, 50, 51, 52, 53, 54, 55, 56, 57, 58, 59, 60, 61, 62, 63, 64, 65, 66, 67, 68, 69, 70, 71, 72, 73, 74, 75, 76, 77, 78, 79, 80, 81, 82, 83, 84, 85, 86, 87, 88, 89, 90, 91, 92, 93, 94, 95, 96, 97, 98, 99, 100, 101, 102, 103, 104, 105, 106, 107, 108, 109, 110, 111, 112, 113, 114, 115, 116, 117, 118, 119, 120, 121, 122, 123, 124, 125, 126, 127, 128, 129, 130, 131, 132, 133, 134, 135, 136, 137, 138, 139, 140, 141, 142, 143, 144, 145, 146, 147, 148, 149, 150, 151, 152, 153, 154, 155, 156, 157, 158, 159, 160, 161, 162, 163, 164, 165, 166, 167, 168, 169, 170, 171, 172, 173, 174, 175, 176, 177, 178, 179, 180, 181, 182, 183, 184, 185, 186, 187, 188, 189, 190, 191, 192, 193, 194, 195, 196, 197, 198, 199, 200, 201, 202, 203, 204, 205, 206, 207, 208, 209, 210, 211, 212, 213, 214, 215, 216, 217, 218, 219, 220, 221, 222, 223, 224, 225, 226, 227, 228, 229, 230, 231, 232, 233, 234, 235, 236, 237, 238, 239, 240, 241, 242, 243, 244, 245, 246, 247, 248, 249, 250, 251, 252, 253, 254, 255, 256],
      "AcquisitionTime": ["170628.157500", "170630.157500", "170632.157500", "170634.157500", "170636.157500", "170638.157500", "170640.157500", "170642.157500", "170644.157500", "170646.157500", "170648.157500", "170650.157500", "170652.157500", "170654.157500", "170656.157500", "170658.157500", "170700.157500", "170702.157500", "170704.157500", "170706.157500", "170708.157500", "170710.157500", "170712.157500", "170714.157500", "170716.157500", "170718.157500", "170720.157500", "170722.157500", "170724.157500", "170726.157500", "170728.157500", "170730.157500", "170732.157500", "170734.157500", "170736.157500", "170738.157500", "170740.157500", "170742.157500", "170744.157500", "170746.157500", "170748.157500", "170750.157500", "170752.157500", "170754.157500", "170756.157500", "170758.157500", "170800.157500", "170802.157500", "170804.157500", "170806.157500", "170808.157500", "170810.157500", "170812.157500", "170814.157500", "170816.157500", "170818.157500", "170820.157500", "170822.157500", "170824.157500", "170826.157500", "170828.157500", "170830.157500", "170832.157500", "170834.157500", "170836.157500", "170838.157500", "170840.157500", "170842.157500", "170844.157500", "170846.157500", "170848.157500", "170850.157500", "170852.157500", "170854.157500", "170856.157500", "170858.157500", "170900.157500", "170902.157500", "170904.157500", "170906.157500", "170908.157500", "170910.157500", "170912.157500", "170914.157500", "170916.157500", "170918.157500", "170920.157500", "170922.157500", "170924.157500", "170926.157500", "170928.157500", "170930.157500", "170932.157500", "170934.157500", "170936.157500", "170938.157500", "170940.157500", "170942.157500", "170944.157500", "170946.157500", "170948.157500", "170950.157500", "170952.157500", "170954.157500", "170956.157500", "170958.157500", "171000.157500", "171002.160000", "171004.160000", "171006.160000", "171008.160000", "171010.160000", "171012.160000", "171014.160000", "171016.160000", "171018.160000", "171020.160000", "171022.160000", "171024.160000", "171026.160000", "171028.160000", "171030.160000", "171032.160000", "171034.160000", "171036.160000", "171038.160000", "171040.160000", "171042.160000", "171044.160000", "171046.160000", "171048.160000", "171050.160000", "171052.160000", "171054.160000", "171056.160000", "171058.160000", "171100.160000", "171102.160000", "171104.160000", "171106.160000", "171108.160000", "171110.160000", "171112.160000", "171114.160000", "171116.160000", "171118.160000", "171120.160000", "171122.160000", "171124.160000", "171126.160000", "171128.160000", "171130.160000", "171132.160000", "171134.160000", "171136.160000", "171138.160000", "171140.160000", "171142.160000", "171144.160000", "171146.160000", "171148.160000", "171150.160000", "171152.160000", "171154.160000", "171156.160000", "171158.160000", "171200.160000", "171202.160000", "171204.160000", "171206.160000", "171208.160000", "171210.160000", "171212.160000", "171214.160000", "171216.160000", "171218.160000", "171220.160000", "171222.160000", "171224.160000", "171226.160000", "171228.160000", "171230.160000", "171232.160000", "171234.160000", "171236.160000", "171238.160000", "171240.160000", "171242.160000", "171244.160000", "171246.160000", "171248.160000", "171250.160000", "171252.160000", "171254.160000", "171256.160000", "171258.160000", "171300.160000", "171302.160000", "171304.160000", "171306.160000", "171308.160000", "171310.160000", "171312.160000", "171314.160000", "171316.160000", "171318.160000", "171320.160000", "171322.160000", "171324.160000", "171326.160000", "171328.160000", "171330.160000", "171332.160000", "171334.160000", "171336.160000", "171338.160000", "171340.160000", "171342.160000", "171344.160000", "171346.160000", "171348.160000", "171350.160000", "171352.160000", "171354.160000", "171356.160000", "171358.160000", "171400.160000", "171402.160000", "171404.160000", "171406.160000", "171408.160000", "171410.160000", "171412.160000", "171414.160000", "171416.160000", "171418.160000", "171420.160000", "171422.160000", "171424.160000", "171426.160000", "171428.160000", "171430.160000", "171432.160000", "171434.160000", "171436.160000", "171438.160000", "171440.160000", "171442.160000", "171444.160000", "171446.160000", "171448.160000", "171450.160000", "171452.160000", "171454.160000", "171456.160000", "171458.160000"],
      "ContentTime": ["170721.530000", "170721.534000", "170721.537000", "170721.539000", "170721.542000", "170721.545000", "170721.548000", "170721.550000", "170721.553000", "170721.556000", "170721.559000", "170721.562000", "170721.565000", "170721.568000", "170721.571000", "170721.574000", "170721.577000", "170721.580000", "170721.583000", "170721.586000", "170721.589000", "170721.591000", "170721.594000", "170721.597000", "170721.600000", "170721.603000", "170721.606000", "170801.522000", "170801.526000", "170801.529000", "170801.531000", "170801.534000", "170801.538000", "170801.540000", "170801.543000", "170801.546000", "170801.549000", "170801.552000", "170801.555000", "170801.557000", "170801.560000", "170801.563000", "170801.566000", "170801.569000", "170801.572000", "170801.575000", "170801.578000", "170821.521000", "170821.524000", "170821.527000", "170821.530000", "170821.533000", "170821.536000", "170821.539000", "170821.542000", "170821.545000", "170821.548000", "170901.522000", "170901.526000", "170901.531000", "170901.534000", "170901.537000", "170901.540000", "170901.543000", "170901.546000", "170901.548000", "170901.551000", "170901.554000", "170901.557000", "170901.560000", "170901.562000", "170901.565000", "170901.568000", "170901.571000", "170901.574000", "170901.577000", "170901.580000", "170941.523000", "170941.530000", "170941.533000", "170941.536000", "170941.539000", "170941.542000", "170941.545000", "170941.548000", "170941.551000", "170941.554000", "170941.557000", "170941.560000", "170941.562000", "170941.566000", "170941.569000", "170941.571000", "170941.574000", "170941.577000", "170941.580000", "170941.583000", "171021.522000", "171021.526000", "171021.528000", "171021.531000", "171021.534000", "171021.537000", "171021.540000", "171021.543000", "171021.545000", "171021.548000", "171021.551000", "171021.554000", "171021.557000", "171021.560000", "171021.563000", "171021.566000", "171021.568000", "171021.571000", "171021.574000", "171021.577000", "171101.521000", "171101.525000", "171101.528000", "171101.530000", "171101.534000", "171101.537000", "171101.540000", "171101.543000", "171101.546000", "171101.549000", "171101.552000", "171101.554000", "171101.557000", "171101.560000", "171101.563000", "171101.566000", "171101.569000", "171101.572000", "171101.575000", "171101.578000", "171141.523000", "171141.526000", "171141.529000", "171141.531000", "171141.534000", "171141.537000", "171141.541000", "171141.544000", "171141.546000", "171141.549000", "171141.552000", "171141.555000", "171141.558000", "171141.561000", "171141.564000", "171141.566000", "171141.569000", "171141.572000", "171141.575000", "171141.578000", "171221.521000", "171221.524000", "171221.527000", "171221.529000", "171221.533000", "171221.536000", "171221.539000", "171221.541000", "171221.544000", "171221.547000", "171221.550000", "171221.553000", "171221.556000", "171221.559000", "171221.562000", "171221.565000", "171221.568000", "171221.571000", "171221.573000", "171221.576000", "171301.522000", "171301.526000", "171301.528000", "171301.531000", "171301.534000", "171301.537000", "171301.540000", "171301.543000", "171301.546000", "171301.549000", "171301.553000", "171301.556000", "171301.560000", "171301.563000", "171301.566000", "171301.569000", "171301.572000", "171301.575000", "171301.578000", "171301.581000", "171341.522000", "171341.525000", "171341.528000", "171341.531000", "171341.534000", "171341.537000", "171341.540000", "171341.543000", "171341.545000", "171341.549000", "171341.552000", "171341.555000", "171341.558000", "171341.561000", "171341.563000", "171341.566000", "171341.569000", "171341.572000", "171341.575000", "171341.578000", "171421.522000", "171421.525000", "171421.528000", "171421.531000", "171421.534000", "171421.537000", "171421.540000", "171421.543000", "171421.546000", "171421.549000", "171421.551000", "171421.554000", "171421.557000", "171421.560000", "171421.562000", "171421.565000", "171421.568000", "171421.571000", "171421.574000", "171421.577000", "171458.284000", "171458.287000", "171458.290000", "171458.293000", "171458.296000", "171458.299000", "171458.302000", "171458.306000", "171458.308000", "171458.311000", "171458.315000", "171458.326000", "171458.330000", "171458.334000", "171458.338000", "171458.341000", "171458.345000", "171458.348000", "171458.351000"],
      "InstanceCreationTime": ["170721.530000", "170721.534000", "170721.537000", "170721.539000", "170721.542000", "170721.545000", "170721.548000", "170721.550000", "170721.553000", "170721.556000", "170721.559000", "170721.562000", "170721.565000", "170721.568000", "170721.571000", "170721.574000", "170721.577000", "170721.580000", "170721.583000", "170721.586000", "170721.589000", "170721.591000", "170721.594000", "170721.597000", "170721.600000", "170721.603000", "170721.606000", "170801.522000", "170801.526000", "170801.529000", "170801.531000", "170801.534000", "170801.538000", "170801.540000", "170801.543000", "170801.546000", "170801.549000", "170801.552000", "170801.555000", "170801.557000", "170801.560000", "170801.563000", "170801.566000", "170801.569000", "170801.572000", "170801.575000", "170801.578000", "170821.521000", "170821.524000", "170821.527000", "170821.530000", "170821.533000", "170821.536000", "170821.539000", "170821.542000", "170821.545000", "170821.548000", "170901.522000", "170901.526000", "170901.531000", "170901.534000", "170901.537000", "170901.540000", "170901.543000", "170901.546000", "170901.548000", "170901.551000", "170901.554000", "170901.557000", "170901.560000", "170901.562000", "170901.565000", "170901.568000", "170901.571000", "170901.574000", "170901.577000", "170901.580000", "170941.523000", "170941.530000", "170941.533000", "170941.536000", "170941.539000", "170941.542000", "170941.545000", "170941.548000", "170941.551000", "170941.554000", "170941.557000", "170941.560000", "170941.562000", "170941.566000", "170941.569000", "170941.571000", "170941.574000", "170941.577000", "170941.580000", "170941.583000", "171021.522000", "171021.526000", "171021.528000", "171021.531000", "171021.534000", "171021.537000", "171021.540000", "171021.543000", "171021.545000", "171021.548000", "171021.551000", "171021.554000", "171021.557000", "171021.560000", "171021.563000", "171021.566000", "171021.568000", "171021.571000", "171021.574000", "171021.577000", "171101.521000", "171101.525000", "171101.528000", "171101.530000", "171101.534000", "171101.537000", "171101.540000", "171101.543000", "171101.546000", "171101.549000", "171101.552000", "171101.554000", "171101.557000", "171101.560000", "171101.563000", "171101.566000", "171101.569000", "171101.572000", "171101.575000", "171101.578000", "171141.523000", "171141.526000", "171141.529000", "171141.531000", "171141.534000", "171141.537000", "171141.541000", "171141.544000", "171141.546000", "171141.549000", "171141.552000", "171141.555000", "171141.558000", "171141.561000", "171141.564000", "171141.566000", "171141.569000", "171141.572000", "171141.575000", "171141.578000", "171221.521000", "171221.524000", "171221.527000", "171221.529000", "171221.533000", "171221.536000", "171221.539000", "171221.541000", "171221.544000", "171221.547000", "171221.550000", "171221.553000", "171221.556000", "171221.559000", "171221.562000", "171221.565000", "171221.568000", "171221.571000", "171221.573000", "171221.576000", "171301.522000", "171301.526000", "171301.528000", "171301.531000", "171301.534000", "171301.537000", "171301.540000", "171301.543000", "171301.546000", "171301.549000", "171301.553000", "171301.556000", "171301.560000", "171301.563000", "171301.566000", "171301.569000", "171301.572000", "171301.575000", "171301.578000", "171301.581000", "171341.522000", "171341.525000", "171341.528000", "171341.531000", "171341.534000", "171341.537000", "171341.540000", "171341.543000", "171341.545000", "171341.549000", "171341.552000", "171341.555000", "171341.558000", "171341.561000", "171341.563000", "171341.566000", "171341.569000", "171341.572000", "171341.575000", "171341.578000", "171421.522000", "171421.525000", "171421.528000", "171421.531000", "171421.534000", "171421.537000", "171421.540000", "171421.543000", "171421.546000", "171421.549000", "171421.551000", "171421.554000", "171421.557000", "171421.560000", "171421.562000", "171421.565000", "171421.568000", "171421.571000", "171421.574000", "171421.577000", "171458.284000", "171458.287000", "171458.290000", "171458.293000", "171458.296000", "171458.299000", "171458.302000", "171458.306000", "171458.308000", "171458.311000", "171458.315000", "171458.326000", "171458.330000", "171458.334000", "171458.338000", "171458.341000", "171458.345000", "171458.348000", "171458.351000"],
      "InstanceNumber": [1, 2, 3, 4, 5, 6, 7, 8, 9, 10, 11, 12, 13, 14, 15, 16, 17, 18, 19, 20, 21, 22, 23, 24, 25, 26, 27, 28, 29, 30, 31, 32, 33, 34, 35, 36, 37, 38, 39, 40, 41, 42, 43, 44, 45, 46, 47, 48, 49, 50, 51, 52, 53, 54, 55, 56, 57, 58, 59, 60, 61, 62, 63, 64, 65, 66, 67, 68, 69, 70, 71, 72, 73, 74, 75, 76, 77, 78, 79, 80, 81, 82, 83, 84, 85, 86, 87, 88, 89, 90, 91, 92, 93, 94, 95, 96, 97, 98, 99, 100, 101, 102, 103, 104, 105, 106, 107, 108, 109, 110, 111, 112, 113, 114, 115, 116, 117, 118, 119, 120, 121, 122, 123, 124, 125, 126, 127, 128, 129, 130, 131, 132, 133, 134, 135, 136, 137, 138, 139, 140, 141, 142, 143, 144, 145, 146, 147, 148, 149, 150, 151, 152, 153, 154, 155, 156, 157, 158, 159, 160, 161, 162, 163, 164, 165, 166, 167, 168, 169, 170, 171, 172, 173, 174, 175, 176, 177, 178, 179, 180, 181, 182, 183, 184, 185, 186, 187, 188, 189, 190, 191, 192, 193, 194, 195, 196, 197, 198, 199, 200, 201, 202, 203, 204, 205, 206, 207, 208, 209, 210, 211, 212, 213, 214, 215, 216, 217, 218, 219, 220, 221, 222, 223, 224, 225, 226, 227, 228, 229, 230, 231, 232, 233, 234, 235, 236, 237, 238, 239, 240, 241, 242, 243, 244, 245, 246, 247, 248, 249, 250, 251, 252, 253, 254, 255, 256],
      "LargestImagePixelValue": [846, 833, 729, 729, 856, 715, 755, 898, 712, 782, 858, 721, 799, 777, 701, 876, 726, 908, 712, 813, 900, 737, 789, 712, 781, 776, 803, 740, 889, 783, 755, 875, 786, 860, 752, 809, 884, 749, 722, 728, 1093, 861, 823, 780, 783, 948, 798, 865, 792, 841, 856, 729, 774, 828, 976, 755, 854, 953, 785, 848, 879, 861, 739, 847, 741, 825, 745, 982, 812, 733, 854, 757, 792, 753, 780, 858, 775, 768, 765, 792, 1059, 837, 869, 874, 896, 881, 796, 730, 813, 786, 717, 730, 810, 799, 724, 788, 778, 757, 782, 862, 745, 922, 735, 772, 919, 764, 900, 812, 776, 1011, 778, 820, 830, 839, 940, 777, 757, 759, 766, 832, 843, 912, 753, 816, 827, 922, 758, 782, 754, 810, 749, 736, 893, 754, 818, 776, 771, 735, 865, 814, 734, 799, 850, 784, 776, 832, 911, 870, 778, 734, 731, 793, 764, 744, 773, 852, 975, 739, 729, 751, 906, 730, 821, 824, 891, 738, 778, 816, 779, 787, 750, 727, 806, 778, 820, 736, 795, 735, 739, 784, 862, 745, 757, 871, 776, 781, 768, 759, 837, 755, 763, 756, 813, 992, 1194, 1139, 826, 760, 739, 774, 727, 733, 757, 815, 757, 872, 765, 758, 757, 774, 714, 735, 906, 994, 879, 769, 825, 833, 849, 731, 724, 713, 792, 734, 766, 747, 763, 871, 741, 806, 728, 900, 776, 846, 745, 914, 763, 722, 856, 764, 965, 733, 883, 733, 817, 769, 722, 768, 760, 861, 740, 749, 768, 866, 766, 710],
      "WindowCenter": [437.0, 435.0, 433.0, 434.0, 435.0, 433.0, 434.0, 434.0, 432.0, 433.0, 433.0, 432.0, 433.0, 432.0, 432.0, 434.0, 433.0, 434.0, 433.0, 433.0, 434.0, 433.0, 434.0, 434.0, 435.0, 435.0, 437.0, 435.0, 438.0, 437.0, 436.0, 436.0, 434.0, 435.0, 435.0, 435.0, 436.0, 436.0, 435.0, 438.0, 440.0, 435.0, 436.0, 436.0, 435.0, 435.0, 435.0, 432.0, 436.0, 435.0, 434.0, 433.0, 433.0, 434.0, 435.0, 434.0, 435.0, 437.0, 435.0, 435.0, 435.0, 435.0, 435.0, 436.0, 436.0, 437.0, 437.0, 442.0, 446.0, 442.0, 439.0, 437.0, 438.0, 440.0, 439.0, 439.0, 439.0, 438.0, 441.0, 447.0, 444.0, 441.0, 439.0, 439.0, 438.0, 437.0, 436.0, 435.0, 436.0, 437.0, 437.0, 437.0, 437.0, 437.0, 437.0, 438.0, 438.0, 438.0, 437.0, 438.0, 437.0, 439.0, 437.0, 437.0, 439.0, 439.0, 441.0, 438.0, 438.0, 440.0, 437.0, 438.0, 439.0, 438.0, 439.0, 436.0, 437.0, 437.0, 437.0, 438.0, 437.0, 438.0, 437.0, 438.0, 437.0, 438.0, 436.0, 437.0, 437.0, 438.0, 436.0, 436.0, 438.0, 436.0, 437.0, 437.0, 436.0, 436.0, 437.0, 436.0, 436.0, 436.0, 437.0, 436.0, 436.0, 436.0, 436.0, 435.0, 435.0, 435.0, 435.0, 435.0, 436.0, 436.0, 437.0, 437.0, 438.0, 435.0, 436.0, 437.0, 438.0, 437.0, 437.0, 437.0, 438.0, 435.0, 436.0, 436.0, 436.0, 435.0, 436.0, 436.0, 437.0, 436.0, 437.0, 436.0, 437.0, 438.0, 438.0, 438.0, 438.0, 438.0, 441.0, 443.0, 439.0, 437.0, 437.0, 437.0, 438.0, 437.0, 437.0, 440.0, 442.0, 444.0, 442.0, 439.0, 433.0, 432.0, 431.0, 432.0, 433.0, 434.0, 435.0, 436.0, 435.0, 436.0, 435.0, 435.0, 436.0, 437.0, 436.0, 437.0, 438.0, 441.0, 443.0, 442.0, 441.0, 438.0, 438.0, 437.0, 437.0, 438.0, 438.0, 438.0, 439.0, 438.0, 438.0, 439.0, 438.0, 439.0, 438.0, 440.0, 439.0, 439.0, 437.0, 439.0, 437.0, 437.0, 438.0, 439.0, 440.0, 438.0, 438.0, 436.0, 438.0, 437.0, 437.0, 437.0, 437.0, 438.0, 437.0, 437.0, 436.0, 438.0, 437.0, 437.0],
      "WindowWidth": [915.0, 911.0, 908.0, 909.0, 910.0, 908.0, 909.0, 909.0, 906.0, 907.0, 908.0, 906.0, 906.0, 906.0, 906.0, 909.0, 907.0, 909.0, 908.0, 908.0, 909.0, 907.0, 910.0, 909.0, 911.0, 912.0, 915.0, 912.0, 915.0, 915.0, 913.0, 912.0, 909.0, 911.0, 911.0, 912.0, 913.0, 912.0, 912.0, 916.0, 920.0, 912.0, 913.0, 913.0, 913.0, 912.0, 911.0, 905.0, 914.0, 911.0, 909.0, 908.0, 908.0, 908.0, 910.0, 908.0, 911.0, 913.0, 910.0, 910.0, 911.0, 911.0, 910.0, 912.0, 913.0, 915.0, 915.0, 924.0, 933.0, 925.0, 918.0, 915.0, 917.0, 920.0, 919.0, 918.0, 917.0, 916.0, 923.0, 934.0, 926.0, 922.0, 918.0, 919.0, 915.0, 914.0, 912.0, 911.0, 913.0, 914.0, 915.0, 914.0, 915.0, 915.0, 915.0, 917.0, 917.0, 916.0, 915.0, 916.0, 915.0, 918.0, 915.0, 916.0, 919.0, 919.0, 923.0, 916.0, 916.0, 919.0, 914.0, 916.0, 918.0, 917.0, 918.0, 914.0, 916.0, 915.0, 915.0, 916.0, 915.0, 916.0, 915.0, 916.0, 914.0, 916.0, 913.0, 915.0, 914.0, 916.0, 914.0, 914.0, 916.0, 913.0, 914.0, 914.0, 913.0, 914.0, 914.0, 913.0, 912.0, 913.0, 915.0, 913.0, 914.0, 913.0, 912.0, 911.0, 911.0, 911.0, 912.0, 912.0, 912.0, 914.0, 915.0, 914.0, 916.0, 912.0, 913.0, 914.0, 917.0, 914.0, 914.0, 914.0, 915.0, 912.0, 912.0, 913.0, 912.0, 912.0, 914.0, 913.0, 914.0, 914.0, 915.0, 914.0, 915.0, 916.0, 917.0, 916.0, 917.0, 916.0, 924.0, 927.0, 918.0, 914.0, 914.0, 915.0, 916.0, 915.0, 916.0, 921.0, 926.0, 926.0, 923.0, 917.0, 908.0, 905.0, 904.0, 905.0, 907.0, 909.0, 911.0, 912.0, 911.0, 913.0, 911.0, 911.0, 913.0, 914.0, 913.0, 914.0, 916.0, 921.0, 926.0, 924.0, 922.0, 916.0, 916.0, 915.0, 915.0, 917.0, 917.0, 917.0, 918.0, 917.0, 917.0, 919.0, 917.0, 918.0, 918.0, 921.0, 918.0, 919.0, 915.0, 918.0, 915.0, 915.0, 917.0, 918.0, 921.0, 917.0, 917.0, 913.0, 916.0, 915.0, 914.0, 915.0, 915.0, 917.0, 915.0, 916.0, 914.0, 916.0, 915.0, 914.0]
    },
    "slices": {}
  }
}