{
  "AcquisitionMatrixPE": 64,
  "AcquisitionNumber": 1,
  "AcquisitionTime": "16:01:55.952500",
  "BandwidthPerPixelPhaseEncode": 40.064,
  "BaseResolution": 64,
  "BodyPartExamined": "BRAIN",
  "ConsistencyInfo": "N4_VD13D_LATEST_20130810",
  "ConversionSoftware": "dcm2niix",
  "ConversionSoftwareVersion": "v1.0.20191031",
  "DerivedVendorReportedEchoSpacing": 0.000780002,
  "DeviceSerialNumber": "67007",
  "DwellTime": 5.3e-06,
  "EchoTime": 0.03,
  "EchoTrainLength": 31,
  "EffectiveEchoSpacing": 0.000390001,
  "FlipAngle": 75,
  "ImageOrientationPatientDICOM": [0.998818, -0.0476422, 0.00962531, 0.0471031, 0.997634, 0.0500804],
  "ImageType": [
    "ORIGINAL",
    "PRIMARY",
    "M",
    "ND",
    "NORM",
    "MOSAIC"
],
  "ImagingFrequency": 123.211,
  "InPlanePhaseEncodingDirectionDICOM": "ROW",
  "InstitutionAddress": "Perth_Drive_100_London_Ontario_CA_N6A_5K8",
  "InstitutionName": "Robarts_Research_Institute",
  "InstitutionalDepartmentName": "CFMM",
  "MRAcquisitionType": "2D",
  "MagneticFieldStrength": 3,
  "Manufacturer": "Siemens",
  "ManufacturersModelName": "Prisma_fit",
  "Modality": "MR",
  "ParallelReductionFactorInPlane": 2,
  "PartialFourier": 1,
  "PatientPosition": "HFS",
  "PercentPhaseFOV": 100,
  "PhaseEncodingDirection": "i",
  "PhaseEncodingSteps": 63,
  "PhaseResolution": 1,
  "PixelBandwidth": 1475,
  "ProcedureStepDescription": "Owen_Naci",
  "ProtocolName": "Resting_State",
  "PulseSequenceDetails": "%SiemensSeq%_ep2d_bold",
  "ReceiveCoilActiveElements": "HEA;HEP",
  "ReceiveCoilName": "Head_32",
  "ReconMatrixPE": 64,
  "RefLinesPE": 24,
  "RepetitionTime": 2,
  "SAR": 0.101416,
  "ScanOptions": "FS",
  "ScanningSequence": "EP",
  "SequenceName": "_epfid2d1_64",
  "SequenceVariant": "SK",
  "SeriesDescription": "Resting_State",
  "SeriesNumber": 5,
  "ShimSetting": [5251, -6046, -3915, 536, 34, 175, 27, -29],
  "SliceThickness": 3,
  "SliceTiming": [1.92, 1.86, 1.8, 1.74, 1.68, 1.62, 1.56, 1.5, 1.44, 1.38, 1.32, 1.26, 1.2, 1.14, 1.08, 1.02, 0.96, 0.9, 0.84, 0.78, 0.72, 0.66, 0.6, 0.54, 0.48, 0.42, 0.36, 0.3, 0.24, 0.18, 0.12, 0.06, 0],
  "SoftwareVersions": "syngo_MR_D13D",
  "SpacingBetweenSlices": 3.75,
  "StationName": "AWP67007",
  "TaskName": "rest",
  "TotalReadoutTime": 0.0245701,
  "TxRefAmp": 275.266,
  "dcmmeta_affine": [
    [-2.9964542388916016, 0.1413092017173767, 0.04495676979422569, 87.4243392944336],
    [0.14292649924755096, 2.992901563644409, 0.18587946891784668, -87.27631378173828],
    [0.028875920921564102, -0.15024128556251526, 3.7451205253601074, -63.79973602294922],
    [0.0, 0.0, 0.0, 1.0]
],
  "dcmmeta_reorient_transform": [
    [0.0, -1.0, 0.0, 63.0],
    [1.0, 0.0, 0.0, 0.0],
    [0.0, 0.0, 1.0, 0.0],
    [0.0, 0.0, 0.0, 1.0]
],
  "dcmmeta_shape": [64, 64, 33, 256],
  "dcmmeta_slice_dim": 2,
  "dcmmeta_version": 0.6,
  "global": {
    "const": {
      "AcquisitionMatrix": [0, 64, 64, 0],
      "AngioFlag": "N",
      "BitsAllocated": 16,
      "BitsStored": 12,
      "BodyPartExamined": "BRAIN",
      "Columns": 384,
      "EchoNumbers": 1,
      "EchoTime": 30.0,
      "EchoTrainLength": 31,
      "FlipAngle": 75.0,
      "HighBit": 11,
      "ImageOrientationPatient": [0.99881809031717, -0.0476421654024, 0.00962530679708, 0.04710306784134, 0.99763382639903, 0.05008042955447],
      "ImagePositionPatient": [-598.36897594284, -557.27247868595, -101.9236920047],
      "ImageType": [
        "ORIGINAL",
        "PRIMARY",
        "M",
        "ND",
        "NORM",
        "MOSAIC"
],
      "ImagedNucleus": "1H",
      "ImagingFrequency": 123.211329,
      "InPlanePhaseEncodingDirection": "ROW",
      "MRAcquisitionType": "2D",
      "MagneticFieldStrength": 3.0,
      "Manufacturer": "SIEMENS",
      "ManufacturerModelName": "Prisma_fit",
      "Modality": "MR",
      "NumberOfAverages": 1.0,
      "NumberOfPhaseEncodingSteps": 63,
      "PercentPhaseFieldOfView": 100.0,
      "PercentSampling": 100.0,
      "PerformedProcedureStepStartTime": "154124.950000",
      "PhotometricInterpretation": "MONOCHROME2",
      "PixelBandwidth": 1475.0,
      "PixelRepresentation": 0,
      "PixelSpacing": [3.0, 3.0],
      "ProtocolName": "Resting State",
      "RepetitionTime": 2000.0,
      "Rows": 384,
      "SAR": 0.10141557749019,
      "SamplesPerPixel": 1,
      "ScanOptions": "FS",
      "ScanningSequence": "EP",
      "SequenceName": "*epfid2d1_64",
      "SequenceVariant": "SK",
      "SeriesDescription": "Resting State",
      "SeriesNumber": 5,
      "SeriesTime": "160237.009000",
      "SliceLocation": -66.99473705547,
      "SliceThickness": 3.0,
      "SmallestImagePixelValue": 0,
      "SoftwareVersions": "syngo MR D13D",
      "SpacingBetweenSlices": 3.7500000050565,
      "SpecificCharacterSet": "ISO_IR 100",
      "StudyID": "1",
      "StudyTime": "154124.800000",
      "TimeOfLastCalibration": ["123723.000000", "123723.000000"],
      "TransmitCoilName": "Body",
      "VariableFlipAngleFlag": "N",
      "WindowCenterWidthExplanation": "Algo1",
      "dBdt": 0.0},
    "slices": {}
  },
  "time": {
    "samples": {
      "AcquisitionNumber": [1, 2, 3, 4, 5, 6, 7, 8, 9, 10, 11, 12, 13, 14, 15, 16, 17, 18, 19, 20, 21, 22, 23, 24, 25, 26, 27, 28, 29, 30, 31, 32, 33, 34, 35, 36, 37, 38, 39, 40, 41, 42, 43, 44, 45, 46, 47, 48, 49, 50, 51, 52, 53, 54, 55, 56, 57, 58, 59, 60, 61, 62, 63, 64, 65, 66, 67, 68, 69, 70, 71, 72, 73, 74, 75, 76, 77, 78, 79, 80, 81, 82, 83, 84, 85, 86, 87, 88, 89, 90, 91, 92, 93, 94, 95, 96, 97, 98, 99, 100, 101, 102, 103, 104, 105, 106, 107, 108, 109, 110, 111, 112, 113, 114, 115, 116, 117, 118, 119, 120, 121, 122, 123, 124, 125, 126, 127, 128, 129, 130, 131, 132, 133, 134, 135, 136, 137, 138, 139, 140, 141, 142, 143, 144, 145, 146, 147, 148, 149, 150, 151, 152, 153, 154, 155, 156, 157, 158, 159, 160, 161, 162, 163, 164, 165, 166, 167, 168, 169, 170, 171, 172, 173, 174, 175, 176, 177, 178, 179, 180, 181, 182, 183, 184, 185, 186, 187, 188, 189, 190, 191, 192, 193, 194, 195, 196, 197, 198, 199, 200, 201, 202, 203, 204, 205, 206, 207, 208, 209, 210, 211, 212, 213, 214, 215, 216, 217, 218, 219, 220, 221, 222, 223, 224, 225, 226, 227, 228, 229, 230, 231, 232, 233, 234, 235, 236, 237, 238, 239, 240, 241, 242, 243, 244, 245, 246, 247, 248, 249, 250, 251, 252, 253, 254, 255, 256],
      "AcquisitionTime": ["160155.952500", "160157.952500", "160159.952500", "160201.952500", "160203.952500", "160205.952500", "160207.952500", "160209.952500", "160211.952500", "160213.952500", "160215.952500", "160217.952500", "160219.952500", "160221.952500", "160223.952500", "160225.952500", "160227.952500", "160229.952500", "160231.952500", "160233.952500", "160235.952500", "160237.952500", "160239.952500", "160241.952500", "160243.952500", "160245.952500", "160247.952500", "160249.952500", "160251.952500", "160253.952500", "160255.952500", "160257.952500", "160259.952500", "160301.952500", "160303.952500", "160305.952500", "160307.952500", "160309.952500", "160311.952500", "160313.952500", "160315.952500", "160317.952500", "160319.952500", "160321.952500", "160323.952500", "160325.952500", "160327.952500", "160329.952500", "160331.952500", "160333.952500", "160335.952500", "160337.952500", "160339.952500", "160341.952500", "160343.952500", "160345.952500", "160347.952500", "160349.952500", "160351.952500", "160353.952500", "160355.952500", "160357.952500", "160359.952500", "160401.952500", "160403.952500", "160405.952500", "160407.952500", "160409.952500", "160411.952500", "160413.952500", "160415.952500", "160417.952500", "160419.952500", "160421.952500", "160423.952500", "160425.952500", "160427.952500", "160429.952500", "160431.955000", "160433.955000", "160435.955000", "160437.955000", "160439.955000", "160441.955000", "160443.955000", "160445.955000", "160447.955000", "160449.955000", "160451.955000", "160453.955000", "160455.955000", "160457.955000", "160459.955000", "160501.955000", "160503.955000", "160505.955000", "160507.955000", "160509.955000", "160511.955000", "160513.955000", "160515.955000", "160517.955000", "160519.955000", "160521.955000", "160523.955000", "160525.955000", "160527.955000", "160529.955000", "160531.955000", "160533.955000", "160535.955000", "160537.955000", "160539.955000", "160541.955000", "160543.955000", "160545.955000", "160547.955000", "160549.955000", "160551.955000", "160553.955000", "160555.955000", "160557.955000", "160559.955000", "160601.955000", "160603.955000", "160605.955000", "160607.955000", "160609.955000", "160611.955000", "160613.955000", "160615.955000", "160617.955000", "160619.955000", "160621.955000", "160623.955000", "160625.955000", "160627.955000", "160629.955000", "160631.955000", "160633.955000", "160635.955000", "160637.955000", "160639.955000", "160641.955000", "160643.955000", "160645.955000", "160647.955000", "160649.955000", "160651.955000", "160653.955000", "160655.955000", "160657.955000", "160659.955000", "160701.955000", "160703.955000", "160705.955000", "160707.955000", "160709.955000", "160711.955000", "160713.955000", "160715.955000", "160717.955000", "160719.955000", "160721.955000", "160723.955000", "160725.955000", "160727.955000", "160729.955000", "160731.955000", "160733.955000", "160735.955000", "160737.955000", "160739.955000", "160741.955000", "160743.955000", "160745.955000", "160747.955000", "160749.955000", "160751.955000", "160753.955000", "160755.955000", "160757.955000", "160759.955000", "160801.955000", "160803.955000", "160805.955000", "160807.955000", "160809.955000", "160811.955000", "160813.955000", "160815.955000", "160817.955000", "160819.955000", "160821.955000", "160823.955000", "160825.955000", "160827.955000", "160829.955000", "160831.955000", "160833.955000", "160835.955000", "160837.955000", "160839.955000", "160841.955000", "160843.955000", "160845.955000", "160847.955000", "160849.955000", "160851.955000", "160853.955000", "160855.955000", "160857.955000", "160859.955000", "160901.955000", "160903.955000", "160905.955000", "160907.955000", "160909.955000", "160911.955000", "160913.955000", "160915.955000", "160917.955000", "160919.955000", "160921.955000", "160923.955000", "160925.955000", "160927.955000", "160929.955000", "160931.955000", "160933.955000", "160935.955000", "160937.955000", "160939.955000", "160941.955000", "160943.955000", "160945.955000", "160947.955000", "160949.955000", "160951.955000", "160953.955000", "160955.955000", "160957.955000", "160959.955000", "161001.955000", "161003.955000", "161005.955000", "161007.955000", "161009.955000", "161011.955000", "161013.955000", "161015.955000", "161017.955000", "161019.955000", "161021.955000", "161023.955000", "161025.955000"],
      "ContentTime": ["160237.014000", "160237.018000", "160237.021000", "160237.024000", "160237.027000", "160237.030000", "160237.033000", "160237.036000", "160237.039000", "160237.041000", "160237.055000", "160237.058000", "160237.061000", "160237.064000", "160237.066000", "160237.069000", "160237.073000", "160237.076000", "160237.079000", "160237.083000", "160237.086000", "160317.008000", "160317.012000", "160317.014000", "160317.017000", "160317.020000", "160317.023000", "160317.026000", "160317.028000", "160317.031000", "160317.034000", "160317.037000", "160317.039000", "160317.042000", "160317.045000", "160317.048000", "160317.051000", "160317.057000", "160317.060000", "160317.063000", "160317.066000", "160357.205000", "160357.208000", "160357.211000", "160357.214000", "160357.216000", "160357.219000", "160357.221000", "160357.224000", "160357.227000", "160357.229000", "160357.232000", "160357.235000", "160357.237000", "160357.240000", "160357.243000", "160357.245000", "160357.248000", "160357.251000", "160357.254000", "160357.256000", "160437.008000", "160437.011000", "160437.014000", "160437.017000", "160437.020000", "160437.023000", "160437.025000", "160437.028000", "160437.030000", "160437.034000", "160437.036000", "160437.039000", "160437.042000", "160437.045000", "160437.048000", "160437.050000", "160437.053000", "160437.056000", "160437.059000", "160437.062000", "160517.008000", "160517.011000", "160517.014000", "160517.017000", "160517.019000", "160517.022000", "160517.025000", "160517.028000", "160517.031000", "160517.034000", "160517.036000", "160517.039000", "160517.042000", "160517.045000", "160517.048000", "160517.050000", "160517.053000", "160517.056000", "160517.059000", "160517.062000", "160557.007000", "160557.011000", "160557.014000", "160557.017000", "160557.019000", "160557.022000", "160557.025000", "160557.028000", "160557.031000", "160557.034000", "160557.148000", "160557.151000", "160557.154000", "160557.157000", "160557.160000", "160557.162000", "160557.165000", "160557.168000", "160557.171000", "160557.174000", "160637.008000", "160637.011000", "160637.014000", "160637.017000", "160637.020000", "160637.023000", "160637.025000", "160637.028000", "160637.037000", "160637.040000", "160637.043000", "160637.046000", "160637.049000", "160637.051000", "160637.054000", "160637.057000", "160637.060000", "160637.063000", "160637.066000", "160637.069000", "160717.008000", "160717.012000", "160717.014000", "160717.017000", "160717.020000", "160717.023000", "160717.025000", "160717.028000", "160717.031000", "160717.033000", "160717.036000", "160717.039000", "160717.041000", "160717.044000", "160717.047000", "160717.050000", "160717.052000", "160717.055000", "160717.058000", "160717.061000", "160757.006000", "160757.009000", "160757.012000", "160757.015000", "160757.018000", "160757.020000", "160757.023000", "160757.026000", "160757.029000", "160757.032000", "160757.035000", "160757.038000", "160757.040000", "160757.043000", "160757.046000", "160757.049000", "160757.052000", "160757.054000", "160757.057000", "160757.060000", "160837.006000", "160837.009000", "160837.012000", "160837.015000", "160837.017000", "160837.020000", "160837.023000", "160837.026000", "160837.028000", "160837.031000", "160837.034000", "160837.036000", "160837.039000", "160837.042000", "160837.045000", "160837.047000", "160837.050000", "160837.052000", "160837.061000", "160837.064000", "160917.006000", "160917.009000", "160917.012000", "160917.015000", "160917.017000", "160917.020000", "160917.023000", "160917.025000", "160917.028000", "160917.030000", "160917.033000", "160917.036000", "160917.039000", "160917.041000", "160917.044000", "160917.047000", "160917.049000", "160917.052000", "160917.055000", "160917.057000", "160957.012000", "160957.016000", "160957.018000", "160957.021000", "160957.024000", "160957.027000", "160957.029000", "160957.032000", "160957.035000", "160957.038000", "160957.041000", "160957.044000", "160957.047000", "160957.049000", "160957.052000", "160957.055000", "160957.058000", "160957.061000", "160957.064000", "160957.066000", "161026.906000", "161026.909000", "161026.912000", "161026.915000", "161026.917000", "161026.920000", "161026.923000", "161026.925000", "161026.928000", "161026.931000", "161026.934000", "161026.936000", "161026.939000", "161026.942000", "161026.944000"],
      "InstanceCreationTime": ["160237.014000", "160237.018000", "160237.021000", "160237.024000", "160237.027000", "160237.030000", "160237.033000", "160237.036000", "160237.039000", "160237.041000", "160237.055000", "160237.058000", "160237.061000", "160237.064000", "160237.066000", "160237.069000", "160237.073000", "160237.076000", "160237.079000", "160237.083000", "160237.086000", "160317.008000", "160317.012000", "160317.014000", "160317.017000", "160317.020000", "160317.023000", "160317.026000", "160317.028000", "160317.031000", "160317.034000", "160317.037000", "160317.039000", "160317.042000", "160317.045000", "160317.048000", "160317.051000", "160317.057000", "160317.060000", "160317.063000", "160317.066000", "160357.205000", "160357.208000", "160357.211000", "160357.214000", "160357.216000", "160357.219000", "160357.221000", "160357.224000", "160357.227000", "160357.229000", "160357.232000", "160357.235000", "160357.237000", "160357.240000", "160357.243000", "160357.245000", "160357.248000", "160357.251000", "160357.254000", "160357.256000", "160437.008000", "160437.011000", "160437.014000", "160437.017000", "160437.020000", "160437.023000", "160437.025000", "160437.028000", "160437.030000", "160437.034000", "160437.036000", "160437.039000", "160437.042000", "160437.045000", "160437.048000", "160437.050000", "160437.053000", "160437.056000", "160437.059000", "160437.062000", "160517.008000", "160517.011000", "160517.014000", "160517.017000", "160517.019000", "160517.022000", "160517.025000", "160517.028000", "160517.031000", "160517.034000", "160517.036000", "160517.039000", "160517.042000", "160517.045000", "160517.048000", "160517.050000", "160517.053000", "160517.056000", "160517.059000", "160517.062000", "160557.007000", "160557.011000", "160557.014000", "160557.017000", "160557.019000", "160557.022000", "160557.025000", "160557.028000", "160557.031000", "160557.034000", "160557.148000", "160557.151000", "160557.154000", "160557.157000", "160557.160000", "160557.162000", "160557.165000", "160557.168000", "160557.171000", "160557.174000", "160637.008000", "160637.011000", "160637.014000", "160637.017000", "160637.020000", "160637.023000", "160637.025000", "160637.028000", "160637.037000", "160637.040000", "160637.043000", "160637.046000", "160637.049000", "160637.051000", "160637.054000", "160637.057000", "160637.060000", "160637.063000", "160637.066000", "160637.069000", "160717.008000", "160717.012000", "160717.014000", "160717.017000", "160717.020000", "160717.023000", "160717.025000", "160717.028000", "160717.031000", "160717.033000", "160717.036000", "160717.039000", "160717.041000", "160717.044000", "160717.047000", "160717.050000", "160717.052000", "160717.055000", "160717.058000", "160717.061000", "160757.006000", "160757.009000", "160757.012000", "160757.015000", "160757.018000", "160757.020000", "160757.023000", "160757.026000", "160757.029000", "160757.032000", "160757.035000", "160757.038000", "160757.040000", "160757.043000", "160757.046000", "160757.049000", "160757.052000", "160757.054000", "160757.057000", "160757.060000", "160837.006000", "160837.009000", "160837.012000", "160837.015000", "160837.017000", "160837.020000", "160837.023000", "160837.026000", "160837.028000", "160837.031000", "160837.034000", "160837.036000", "160837.039000", "160837.042000", "160837.045000", "160837.047000", "160837.050000", "160837.052000", "160837.061000", "160837.064000", "160917.006000", "160917.009000", "160917.012000", "160917.015000", "160917.017000", "160917.020000", "160917.023000", "160917.025000", "160917.028000", "160917.030000", "160917.033000", "160917.036000", "160917.039000", "160917.041000", "160917.044000", "160917.047000", "160917.049000", "160917.052000", "160917.055000", "160917.057000", "160957.012000", "160957.016000", "160957.018000", "160957.021000", "160957.024000", "160957.027000", "160957.029000", "160957.032000", "160957.035000", "160957.038000", "160957.041000", "160957.044000", "160957.047000", "160957.049000", "160957.052000", "160957.055000", "160957.058000", "160957.061000", "160957.064000", "160957.066000", "161026.906000", "161026.909000", "161026.912000", "161026.915000", "161026.917000", "161026.920000", "161026.923000", "161026.925000", "161026.928000", "161026.931000", "161026.934000", "161026.936000", "161026.939000", "161026.942000", "161026.944000"],
      "InstanceNumber": [1, 2, 3, 4, 5, 6, 7, 8, 9, 10, 11, 12, 13, 14, 15, 16, 17, 18, 19, 20, 21, 22, 23, 24, 25, 26, 27, 28, 29, 30, 31, 32, 33, 34, 35, 36, 37, 38, 39, 40, 41, 42, 43, 44, 45, 46, 47, 48, 49, 50, 51, 52, 53, 54, 55, 56, 57, 58, 59, 60, 61, 62, 63, 64, 65, 66, 67, 68, 69, 70, 71, 72, 73, 74, 75, 76, 77, 78, 79, 80, 81, 82, 83, 84, 85, 86, 87, 88, 89, 90, 91, 92, 93, 94, 95, 96, 97, 98, 99, 100, 101, 102, 103, 104, 105, 106, 107, 108, 109, 110, 111, 112, 113, 114, 115, 116, 117, 118, 119, 120, 121, 122, 123, 124, 125, 126, 127, 128, 129, 130, 131, 132, 133, 134, 135, 136, 137, 138, 139, 140, 141, 142, 143, 144, 145, 146, 147, 148, 149, 150, 151, 152, 153, 154, 155, 156, 157, 158, 159, 160, 161, 162, 163, 164, 165, 166, 167, 168, 169, 170, 171, 172, 173, 174, 175, 176, 177, 178, 179, 180, 181, 182, 183, 184, 185, 186, 187, 188, 189, 190, 191, 192, 193, 194, 195, 196, 197, 198, 199, 200, 201, 202, 203, 204, 205, 206, 207, 208, 209, 210, 211, 212, 213, 214, 215, 216, 217, 218, 219, 220, 221, 222, 223, 224, 225, 226, 227, 228, 229, 230, 231, 232, 233, 234, 235, 236, 237, 238, 239, 240, 241, 242, 243, 244, 245, 246, 247, 248, 249, 250, 251, 252, 253, 254, 255, 256],
      "LargestImagePixelValue": [766, 874, 736, 710, 880, 742, 794, 713, 814, 758, 766, 733, 741, 709, 799, 709, 865, 710, 851, 784, 704, 723, 725, 968, 735, 900, 763, 745, 794, 709, 854, 709, 868, 784, 742, 870, 761, 731, 848, 766, 764, 781, 710, 816, 723, 843, 732, 722, 807, 711, 820, 774, 718, 804, 712, 856, 785, 703, 846, 717, 764, 822, 716, 785, 832, 715, 852, 742, 720, 854, 724, 807, 752, 760, 718, 711, 864, 716, 825, 755, 719, 841, 748, 833, 717, 835, 762, 719, 856, 715, 889, 762, 741, 875, 714, 820, 725, 758, 822, 719, 923, 720, 838, 723, 863, 731, 744, 777, 714, 849, 713, 865, 764, 718, 782, 719, 867, 712, 840, 786, 713, 832, 722, 881, 769, 716, 825, 710, 834, 729, 868, 765, 711, 853, 713, 827, 771, 744, 762, 709, 859, 717, 748, 819, 723, 793, 853, 720, 803, 755, 729, 845, 777, 815, 775, 718, 719, 721, 729, 843, 757, 728, 791, 728, 845, 887, 724, 799, 791, 719, 857, 729, 770, 757, 774, 789, 725, 834, 726, 866, 743, 766, 780, 712, 838, 763, 750, 805, 711, 842, 779, 710, 844, 722, 827, 743, 726, 883, 706, 818, 827, 711, 761, 829, 705, 804, 798, 717, 841, 716, 796, 868, 731, 773, 826, 713, 837, 768, 771, 811, 707, 840, 742, 734, 806, 788, 707, 849, 775, 715, 854, 720, 793, 758, 728, 912, 732, 752, 935, 728, 749, 812, 722, 803, 848, 724, 847, 780, 716, 815, 853, 720, 816, 877, 724, 812],
      "WindowCenter": [379.0, 380.0, 377.0, 377.0, 379.0, 378.0, 379.0, 378.0, 378.0, 378.0, 378.0, 378.0, 377.0, 376.0, 378.0, 377.0, 378.0, 377.0, 378.0, 377.0, 376.0, 377.0, 378.0, 380.0, 378.0, 378.0, 377.0, 377.0, 377.0, 376.0, 378.0, 377.0, 380.0, 379.0, 378.0, 379.0, 378.0, 378.0, 379.0, 378.0, 378.0, 378.0, 378.0, 379.0, 378.0, 379.0, 377.0, 378.0, 378.0, 378.0, 378.0, 378.0, 377.0, 379.0, 379.0, 380.0, 378.0, 377.0, 379.0, 378.0, 379.0, 379.0, 378.0, 378.0, 379.0, 377.0, 380.0, 379.0, 379.0, 380.0, 379.0, 379.0, 378.0, 378.0, 378.0, 379.0, 380.0, 379.0, 380.0, 379.0, 379.0, 381.0, 379.0, 380.0, 379.0, 380.0, 379.0, 379.0, 380.0, 378.0, 380.0, 379.0, 379.0, 380.0, 378.0, 379.0, 379.0, 379.0, 380.0, 378.0, 381.0, 379.0, 380.0, 379.0, 380.0, 379.0, 379.0, 380.0, 379.0, 380.0, 379.0, 380.0, 379.0, 379.0, 378.0, 379.0, 380.0, 379.0, 379.0, 379.0, 378.0, 379.0, 378.0, 379.0, 378.0, 377.0, 378.0, 378.0, 378.0, 378.0, 380.0, 378.0, 377.0, 379.0, 378.0, 379.0, 378.0, 378.0, 378.0, 377.0, 379.0, 377.0, 378.0, 379.0, 378.0, 378.0, 379.0, 377.0, 379.0, 379.0, 379.0, 380.0, 379.0, 379.0, 378.0, 378.0, 378.0, 379.0, 378.0, 379.0, 378.0, 378.0, 379.0, 379.0, 379.0, 379.0, 377.0, 379.0, 379.0, 379.0, 380.0, 379.0, 380.0, 379.0, 380.0, 380.0, 379.0, 380.0, 379.0, 380.0, 379.0, 379.0, 379.0, 378.0, 379.0, 378.0, 378.0, 378.0, 378.0, 379.0, 379.0, 377.0, 378.0, 378.0, 379.0, 378.0, 378.0, 380.0, 377.0, 378.0, 379.0, 377.0, 378.0, 378.0, 377.0, 378.0, 378.0, 378.0, 380.0, 378.0, 379.0, 379.0, 378.0, 378.0, 379.0, 378.0, 379.0, 378.0, 378.0, 379.0, 377.0, 378.0, 377.0, 379.0, 379.0, 379.0, 378.0, 379.0, 379.0, 378.0, 380.0, 378.0, 379.0, 380.0, 380.0, 381.0, 379.0, 379.0, 381.0, 378.0, 378.0, 378.0, 378.0, 379.0, 380.0, 378.0, 379.0, 378.0, 377.0, 378.0, 378.0, 377.0, 379.0, 379.0, 377.0, 378.0],
      "WindowWidth": [809.0, 809.0, 805.0, 805.0, 808.0, 806.0, 808.0, 807.0, 807.0, 806.0, 806.0, 806.0, 805.0, 804.0, 806.0, 804.0, 807.0, 805.0, 806.0, 804.0, 804.0, 805.0, 807.0, 810.0, 806.0, 806.0, 805.0, 804.0, 805.0, 804.0, 806.0, 805.0, 809.0, 809.0, 806.0, 809.0, 807.0, 806.0, 808.0, 806.0, 806.0, 807.0, 806.0, 808.0, 806.0, 808.0, 805.0, 806.0, 807.0, 806.0, 807.0, 807.0, 805.0, 808.0, 808.0, 809.0, 807.0, 806.0, 808.0, 807.0, 808.0, 808.0, 806.0, 807.0, 808.0, 805.0, 809.0, 808.0, 808.0, 810.0, 808.0, 808.0, 807.0, 807.0, 807.0, 808.0, 809.0, 808.0, 810.0, 809.0, 809.0, 811.0, 809.0, 809.0, 808.0, 810.0, 809.0, 808.0, 810.0, 807.0, 809.0, 808.0, 808.0, 809.0, 806.0, 808.0, 808.0, 809.0, 809.0, 807.0, 811.0, 808.0, 809.0, 808.0, 811.0, 809.0, 809.0, 810.0, 808.0, 811.0, 808.0, 810.0, 809.0, 808.0, 807.0, 808.0, 809.0, 808.0, 809.0, 808.0, 806.0, 808.0, 806.0, 808.0, 806.0, 805.0, 807.0, 806.0, 807.0, 807.0, 809.0, 806.0, 805.0, 808.0, 806.0, 808.0, 807.0, 806.0, 806.0, 806.0, 807.0, 805.0, 806.0, 808.0, 806.0, 807.0, 808.0, 805.0, 808.0, 809.0, 808.0, 811.0, 809.0, 808.0, 807.0, 806.0, 807.0, 808.0, 807.0, 809.0, 807.0, 807.0, 808.0, 807.0, 808.0, 807.0, 805.0, 808.0, 808.0, 808.0, 810.0, 808.0, 810.0, 809.0, 810.0, 810.0, 809.0, 809.0, 808.0, 811.0, 808.0, 808.0, 809.0, 807.0, 808.0, 807.0, 807.0, 807.0, 806.0, 808.0, 808.0, 805.0, 807.0, 807.0, 809.0, 807.0, 807.0, 809.0, 806.0, 807.0, 808.0, 805.0, 806.0, 807.0, 805.0, 807.0, 807.0, 806.0, 809.0, 807.0, 808.0, 808.0, 806.0, 807.0, 808.0, 807.0, 808.0, 807.0, 807.0, 808.0, 806.0, 807.0, 805.0, 808.0, 809.0, 809.0, 807.0, 808.0, 808.0, 807.0, 810.0, 807.0, 809.0, 810.0, 809.0, 812.0, 808.0, 809.0, 811.0, 807.0, 806.0, 807.0, 807.0, 809.0, 810.0, 807.0, 808.0, 806.0, 806.0, 807.0, 807.0, 805.0, 808.0, 808.0, 806.0, 807.0]
    },
    "slices": {}
  }
}