{
  "AcquisitionMatrixPE": 64,
  "AcquisitionNumber": 1,
  "AcquisitionTime": "11:23:14.255000",
  "BandwidthPerPixelPhaseEncode": 40.064,
  "BaseResolution": 64,
  "BodyPartExamined": "BRAIN",
  "ConsistencyInfo": "N4_VD13D_LATEST_20130810",
  "ConversionSoftware": "dcm2niix",
  "ConversionSoftwareVersion": "v1.0.20191031",
  "DerivedVendorReportedEchoSpacing": 0.000780002,
  "DeviceSerialNumber": "67007",
  "DwellTime": 5.3e-06,
  "EchoTime": 0.03,
  "EchoTrainLength": 31,
  "EffectiveEchoSpacing": 0.000390001,
  "FlipAngle": 75,
  "ImageOrientationPatientDICOM": [0.999077, 0.0208633, -0.0375509, -0.0226722, 0.99857, -0.0484084],
  "ImageType": [
    "ORIGINAL",
    "PRIMARY",
    "M",
    "ND",
    "NORM",
    "MOSAIC"
],
  "ImagingFrequency": 123.211,
  "InPlanePhaseEncodingDirectionDICOM": "ROW",
  "InstitutionAddress": "Perth_Drive_100_London_Ontario_CA_N6A_5K8",
  "InstitutionName": "Robarts-CFMM",
  "InstitutionalDepartmentName": "CFMM",
  "MRAcquisitionType": "2D",
  "MagneticFieldStrength": 3,
  "Manufacturer": "Siemens",
  "ManufacturersModelName": "Prisma_fit",
  "Modality": "MR",
  "ParallelReductionFactorInPlane": 2,
  "PartialFourier": 1,
  "PatientPosition": "HFS",
  "PercentPhaseFOV": 100,
  "PhaseEncodingDirection": "i",
  "PhaseEncodingSteps": 63,
  "PhaseResolution": 1,
  "PixelBandwidth": 1475,
  "ProcedureStepDescription": "Owen_Naci",
  "ProtocolName": "taken",
  "PulseSequenceDetails": "%SiemensSeq%_ep2d_bold",
  "ReceiveCoilActiveElements": "HEA;HEP",
  "ReceiveCoilName": "Head_32",
  "ReconMatrixPE": 64,
  "RefLinesPE": 24,
  "RepetitionTime": 2,
  "SAR": 0.141631,
  "ScanOptions": "FS",
  "ScanningSequence": "EP",
  "SequenceName": "_epfid2d1_64",
  "SequenceVariant": "SK",
  "SeriesDescription": "taken",
  "SeriesNumber": 22,
  "ShimSetting": [5235, -6122, -3911, 329, -8, 162, 111, -51],
  "SliceThickness": 3,
  "SliceTiming": [1.92, 1.86, 1.8, 1.74, 1.68, 1.62, 1.56, 1.5, 1.44, 1.38, 1.32, 1.26, 1.2, 1.14, 1.08, 1.02, 0.96, 0.9, 0.84, 0.78, 0.72, 0.66, 0.6, 0.54, 0.48, 0.42, 0.36, 0.3, 0.24, 0.18, 0.12, 0.06, 0],
  "SoftwareVersions": "syngo_MR_D13D",
  "SpacingBetweenSlices": 3.75,
  "StationName": "AWP67007",
  "TaskName": "audio",
  "TotalReadoutTime": 0.0245701,
  "TxRefAmp": 280.503,
  "dcmmeta_affine": [
    [-2.9972307682037354, -0.06801667809486389, -0.13682721555233002, 102.08744049072266],
    [-0.06259004771709442, 2.995710849761963, -0.18455646932125092, -69.05018615722656],
    [-0.11265271157026291, 0.1452251374721527, 3.7429556846618652, -32.62803268432617],
    [0.0, 0.0, 0.0, 1.0]
],
  "dcmmeta_reorient_transform": [
    [0.0, -1.0, 0.0, 63.0],
    [1.0, 0.0, 0.0, 0.0],
    [0.0, 0.0, 1.0, 0.0],
    [0.0, 0.0, 0.0, 1.0]
],
  "dcmmeta_shape": [64, 64, 33, 155],
  "dcmmeta_slice_dim": 2,
  "dcmmeta_version": 0.6,
  "global": {
    "const": {
      "AcquisitionMatrix": [0, 64, 64, 0],
      "AngioFlag": "N",
      "BitsAllocated": 16,
      "BitsStored": 12,
      "BodyPartExamined": "BRAIN",
      "Columns": 384,
      "EchoNumbers": 1,
      "EchoTime": 30.0,
      "EchoTrainLength": 31,
      "FlipAngle": 75.0,
      "HighBit": 11,
      "ImageOrientationPatient": [0.99907689905768, 0.02086334823819, -0.0375509050435, -0.0226722267163, 0.99857027732858, -0.0484083812128],
      "ImagePositionPatient": [-566.4766314374, -609.00773698491, 17.781609018516],
      "ImageType": [
        "ORIGINAL",
        "PRIMARY",
        "M",
        "ND",
        "NORM",
        "MOSAIC"
],
      "ImagedNucleus": "1H",
      "ImagingFrequency": 123.211125,
      "InPlanePhaseEncodingDirection": "ROW",
      "MRAcquisitionType": "2D",
      "MagneticFieldStrength": 3.0,
      "Manufacturer": "SIEMENS",
      "ManufacturerModelName": "Prisma_fit",
      "Modality": "MR",
      "NumberOfAverages": 1.0,
      "NumberOfPhaseEncodingSteps": 63,
      "PercentPhaseFieldOfView": 100.0,
      "PercentSampling": 100.0,
      "PerformedProcedureStepStartTime": "093249.620000",
      "PhotometricInterpretation": "MONOCHROME2",
      "PixelBandwidth": 1475.0,
      "PixelRepresentation": 0,
      "PixelSpacing": [3.0, 3.0],
      "ProtocolName": "taken",
      "RepetitionTime": 2000.0,
      "Rows": 384,
      "SAR": 0.14163147387896,
      "SamplesPerPixel": 1,
      "ScanOptions": "FS",
      "ScanningSequence": "EP",
      "SequenceName": "*epfid2d1_64",
      "SequenceVariant": "SK",
      "SeriesDescription": "taken",
      "SeriesNumber": 22,
      "SeriesTime": "112331.749000",
      "SliceLocation": -32.893322877554,
      "SliceThickness": 3.0,
      "SmallestImagePixelValue": 0,
      "SoftwareVersions": "syngo MR D13D",
      "SpacingBetweenSlices": 3.7499999460954,
      "SpecificCharacterSet": "ISO_IR 100",
      "StudyID": "1",
      "StudyTime": "093249.503000",
      "TimeOfLastCalibration": ["123723.000000", "123723.000000"],
      "TransmitCoilName": "Body",
      "VariableFlipAngleFlag": "N",
      "WindowCenterWidthExplanation": "Algo1",
      "dBdt": 0.0},
    "slices": {}
  },
  "time": {
    "samples": {
      "AcquisitionNumber": [1, 2, 3, 4, 5, 6, 7, 8, 9, 10, 11, 12, 13, 14, 15, 16, 17, 18, 19, 20, 21, 22, 23, 24, 25, 26, 27, 28, 29, 30, 31, 32, 33, 34, 35, 36, 37, 38, 39, 40, 41, 42, 43, 44, 45, 46, 47, 48, 49, 50, 51, 52, 53, 54, 55, 56, 57, 58, 59, 60, 61, 62, 63, 64, 65, 66, 67, 68, 69, 70, 71, 72, 73, 74, 75, 76, 77, 78, 79, 80, 81, 82, 83, 84, 85, 86, 87, 88, 89, 90, 91, 92, 93, 94, 95, 96, 97, 98, 99, 100, 101, 102, 103, 104, 105, 106, 107, 108, 109, 110, 111, 112, 113, 114, 115, 116, 117, 118, 119, 120, 121, 122, 123, 124, 125, 126, 127, 128, 129, 130, 131, 132, 133, 134, 135, 136, 137, 138, 139, 140, 141, 142, 143, 144, 145, 146, 147, 148, 149, 150, 151, 152, 153, 154, 155],
      "AcquisitionTime": ["112314.255000", "112316.255000", "112318.255000", "112320.255000", "112322.255000", "112324.255000", "112326.255000", "112328.255000", "112330.255000", "112332.255000", "112334.255000", "112336.255000", "112338.255000", "112340.255000", "112342.255000", "112344.255000", "112346.255000", "112348.255000", "112350.255000", "112352.255000", "112354.255000", "112356.255000", "112358.255000", "112400.255000", "112402.255000", "112404.255000", "112406.255000", "112408.255000", "112410.255000", "112412.255000", "112414.255000", "112416.255000", "112418.255000", "112420.255000", "112422.255000", "112424.255000", "112426.255000", "112428.255000", "112430.255000", "112432.255000", "112434.255000", "112436.255000", "112438.255000", "112440.255000", "112442.255000", "112444.255000", "112446.255000", "112448.255000", "112450.255000", "112452.255000", "112454.255000", "112456.255000", "112458.255000", "112500.255000", "112502.255000", "112504.255000", "112506.257500", "112508.257500", "112510.257500", "112512.257500", "112514.257500", "112516.257500", "112518.257500", "112520.257500", "112522.257500", "112524.257500", "112526.257500", "112528.257500", "112530.257500", "112532.257500", "112534.257500", "112536.257500", "112538.257500", "112540.257500", "112542.257500", "112544.257500", "112546.257500", "112548.257500", "112550.257500", "112552.257500", "112554.257500", "112556.257500", "112558.257500", "112600.257500", "112602.257500", "112604.257500", "112606.257500", "112608.257500", "112610.257500", "112612.257500", "112614.257500", "112616.257500", "112618.257500", "112620.257500", "112622.257500", "112624.257500", "112626.257500", "112628.257500", "112630.257500", "112632.257500", "112634.257500", "112636.257500", "112638.257500", "112640.257500", "112642.257500", "112644.257500", "112646.257500", "112648.257500", "112650.257500", "112652.257500", "112654.257500", "112656.257500", "112658.257500", "112700.257500", "112702.257500", "112704.257500", "112706.257500", "112708.257500", "112710.257500", "112712.257500", "112714.257500", "112716.257500", "112718.257500", "112720.257500", "112722.257500", "112724.257500", "112726.257500", "112728.257500", "112730.257500", "112732.257500", "112734.257500", "112736.257500", "112738.257500", "112740.257500", "112742.257500", "112744.257500", "112746.257500", "112748.257500", "112750.257500", "112752.257500", "112754.257500", "112756.257500", "112758.257500", "112800.257500", "112802.257500", "112804.257500", "112806.257500", "112808.257500", "112810.257500", "112812.257500", "112814.257500", "112816.257500", "112818.257500", "112820.257500", "112822.257500"],
      "ContentTime": ["112331.753000", "112331.757000", "112331.760000", "112331.763000", "112331.766000", "112331.769000", "112331.771000", "112331.778000", "112411.748000", "112411.752000", "112411.755000", "112411.758000", "112411.761000", "112411.764000", "112411.767000", "112411.770000", "112411.772000", "112411.776000", "112411.778000", "112411.781000", "112411.784000", "112411.787000", "112411.790000", "112411.793000", "112411.796000", "112411.799000", "112411.802000", "112411.805000", "112451.748000", "112451.751000", "112451.754000", "112451.757000", "112451.760000", "112451.763000", "112451.765000", "112451.768000", "112451.771000", "112451.774000", "112451.777000", "112451.780000", "112451.783000", "112451.786000", "112451.789000", "112451.791000", "112451.794000", "112451.797000", "112451.800000", "112451.803000", "112531.748000", "112531.752000", "112531.755000", "112531.758000", "112531.761000", "112531.764000", "112531.767000", "112531.770000", "112531.772000", "112531.775000", "112531.778000", "112531.781000", "112531.784000", "112531.787000", "112531.790000", "112531.792000", "112531.795000", "112531.798000", "112531.801000", "112531.804000", "112611.747000", "112611.750000", "112611.753000", "112611.756000", "112611.759000", "112611.763000", "112611.766000", "112611.768000", "112611.771000", "112611.774000", "112611.777000", "112611.780000", "112611.783000", "112611.786000", "112611.789000", "112611.792000", "112611.794000", "112611.797000", "112611.800000", "112611.803000", "112651.748000", "112651.752000", "112651.755000", "112651.758000", "112651.761000", "112651.764000", "112651.767000", "112651.770000", "112651.773000", "112651.776000", "112651.779000", "112651.781000", "112651.784000", "112651.787000", "112651.790000", "112651.793000", "112651.796000", "112651.799000", "112651.801000", "112651.804000", "112731.748000", "112731.751000", "112731.755000", "112731.758000", "112731.761000", "112731.763000", "112731.766000", "112731.769000", "112731.772000", "112731.775000", "112731.778000", "112731.781000", "112731.784000", "112731.786000", "112731.789000", "112731.792000", "112731.795000", "112731.797000", "112731.800000", "112731.803000", "112811.746000", "112811.749000", "112811.752000", "112811.756000", "112811.759000", "112811.761000", "112811.764000", "112811.767000", "112811.770000", "112811.773000", "112811.776000", "112811.779000", "112811.782000", "112811.784000", "112811.787000", "112811.790000", "112811.793000", "112811.796000", "112811.799000", "112811.802000", "112825.676000", "112825.679000", "112825.682000", "112825.685000", "112825.688000", "112825.691000", "112825.694000"],
      "InstanceCreationTime": ["112331.753000", "112331.757000", "112331.760000", "112331.763000", "112331.766000", "112331.769000", "112331.771000", "112331.778000", "112411.748000", "112411.752000", "112411.755000", "112411.758000", "112411.761000", "112411.764000", "112411.767000", "112411.770000", "112411.772000", "112411.776000", "112411.778000", "112411.781000", "112411.784000", "112411.787000", "112411.790000", "112411.793000", "112411.796000", "112411.799000", "112411.802000", "112411.805000", "112451.748000", "112451.751000", "112451.754000", "112451.757000", "112451.760000", "112451.763000", "112451.765000", "112451.768000", "112451.771000", "112451.774000", "112451.777000", "112451.780000", "112451.783000", "112451.786000", "112451.789000", "112451.791000", "112451.794000", "112451.797000", "112451.800000", "112451.803000", "112531.748000", "112531.752000", "112531.755000", "112531.758000", "112531.761000", "112531.764000", "112531.767000", "112531.770000", "112531.772000", "112531.775000", "112531.778000", "112531.781000", "112531.784000", "112531.787000", "112531.790000", "112531.792000", "112531.795000", "112531.798000", "112531.801000", "112531.804000", "112611.747000", "112611.750000", "112611.753000", "112611.756000", "112611.759000", "112611.763000", "112611.766000", "112611.768000", "112611.771000", "112611.774000", "112611.777000", "112611.780000", "112611.783000", "112611.786000", "112611.789000", "112611.792000", "112611.794000", "112611.797000", "112611.800000", "112611.803000", "112651.748000", "112651.752000", "112651.755000", "112651.758000", "112651.761000", "112651.764000", "112651.767000", "112651.770000", "112651.773000", "112651.776000", "112651.779000", "112651.781000", "112651.784000", "112651.787000", "112651.790000", "112651.793000", "112651.796000", "112651.799000", "112651.801000", "112651.804000", "112731.748000", "112731.751000", "112731.755000", "112731.758000", "112731.761000", "112731.763000", "112731.766000", "112731.769000", "112731.772000", "112731.775000", "112731.778000", "112731.781000", "112731.784000", "112731.786000", "112731.789000", "112731.792000", "112731.795000", "112731.797000", "112731.800000", "112731.803000", "112811.746000", "112811.749000", "112811.752000", "112811.756000", "112811.759000", "112811.761000", "112811.764000", "112811.767000", "112811.770000", "112811.773000", "112811.776000", "112811.779000", "112811.782000", "112811.784000", "112811.787000", "112811.790000", "112811.793000", "112811.796000", "112811.799000", "112811.802000", "112825.676000", "112825.679000", "112825.682000", "112825.685000", "112825.688000", "112825.691000", "112825.694000"],
      "InstanceNumber": [1, 2, 3, 4, 5, 6, 7, 8, 9, 10, 11, 12, 13, 14, 15, 16, 17, 18, 19, 20, 21, 22, 23, 24, 25, 26, 27, 28, 29, 30, 31, 32, 33, 34, 35, 36, 37, 38, 39, 40, 41, 42, 43, 44, 45, 46, 47, 48, 49, 50, 51, 52, 53, 54, 55, 56, 57, 58, 59, 60, 61, 62, 63, 64, 65, 66, 67, 68, 69, 70, 71, 72, 73, 74, 75, 76, 77, 78, 79, 80, 81, 82, 83, 84, 85, 86, 87, 88, 89, 90, 91, 92, 93, 94, 95, 96, 97, 98, 99, 100, 101, 102, 103, 104, 105, 106, 107, 108, 109, 110, 111, 112, 113, 114, 115, 116, 117, 118, 119, 120, 121, 122, 123, 124, 125, 126, 127, 128, 129, 130, 131, 132, 133, 134, 135, 136, 137, 138, 139, 140, 141, 142, 143, 144, 145, 146, 147, 148, 149, 150, 151, 152, 153, 154, 155],
      "LargestImagePixelValue": [1093, 1071, 1156, 1226, 1019, 879, 903, 990, 1099, 994, 881, 1014, 962, 1005, 983, 845, 868, 862, 1066, 902, 1108, 1065, 920, 915, 1054, 918, 855, 1147, 895, 1248, 837, 913, 1119, 983, 815, 806, 789, 993, 913, 802, 930, 872, 1239, 1024, 921, 885, 927, 1115, 1178, 959, 814, 845, 995, 873, 864, 1112, 883, 982, 1065, 1048, 880, 980, 1058, 876, 922, 800, 805, 1105, 879, 902, 969, 1032, 1119, 1116, 817, 818, 1045, 857, 944, 1046, 935, 952, 1045, 827, 1216, 859, 918, 1011, 1029, 852, 1139, 868, 830, 921, 858, 819, 953, 853, 953, 966, 1005, 1191, 844, 1079, 988, 924, 1094, 1030, 901, 974, 804, 749, 1037, 1120, 1137, 1085, 835, 822, 1005, 769, 807, 907, 764, 856, 1090, 1074, 978, 826, 907, 991, 1019, 869, 790, 945, 890, 871, 934, 1138, 1103, 1069, 874, 830, 786, 1022, 1044, 1105, 959, 864, 826, 866, 1072, 835, 907, 1019, 924],
      "WindowCenter": [426.0, 424.0, 423.0, 421.0, 420.0, 420.0, 424.0, 426.0, 426.0, 423.0, 421.0, 422.0, 421.0, 420.0, 420.0, 421.0, 424.0, 426.0, 430.0, 426.0, 426.0, 425.0, 423.0, 421.0, 422.0, 422.0, 424.0, 427.0, 425.0, 426.0, 421.0, 421.0, 423.0, 422.0, 422.0, 421.0, 423.0, 425.0, 424.0, 423.0, 425.0, 426.0, 429.0, 424.0, 422.0, 421.0, 422.0, 424.0, 422.0, 421.0, 422.0, 424.0, 426.0, 423.0, 422.0, 422.0, 422.0, 423.0, 422.0, 421.0, 420.0, 420.0, 419.0, 418.0, 421.0, 422.0, 423.0, 425.0, 422.0, 421.0, 420.0, 420.0, 420.0, 420.0, 419.0, 422.0, 426.0, 422.0, 422.0, 422.0, 421.0, 423.0, 422.0, 422.0, 425.0, 421.0, 420.0, 420.0, 420.0, 419.0, 422.0, 419.0, 419.0, 422.0, 423.0, 424.0, 426.0, 425.0, 425.0, 425.0, 426.0, 425.0, 422.0, 425.0, 423.0, 422.0, 423.0, 422.0, 420.0, 422.0, 422.0, 423.0, 425.0, 424.0, 424.0, 421.0, 417.0, 417.0, 421.0, 421.0, 422.0, 421.0, 420.0, 422.0, 423.0, 421.0, 421.0, 420.0, 422.0, 423.0, 423.0, 422.0, 425.0, 428.0, 426.0, 424.0, 425.0, 425.0, 422.0, 420.0, 418.0, 420.0, 423.0, 426.0, 423.0, 423.0, 420.0, 418.0, 417.0, 419.0, 422.0, 421.0, 424.0, 424.0, 424.0],
      "WindowWidth": [900.0, 896.0, 894.0, 890.0, 887.0, 889.0, 897.0, 900.0, 898.0, 894.0, 890.0, 891.0, 891.0, 888.0, 889.0, 890.0, 896.0, 901.0, 907.0, 900.0, 899.0, 898.0, 894.0, 889.0, 891.0, 893.0, 896.0, 902.0, 897.0, 898.0, 891.0, 889.0, 893.0, 891.0, 892.0, 890.0, 894.0, 897.0, 896.0, 895.0, 899.0, 900.0, 904.0, 896.0, 892.0, 890.0, 892.0, 895.0, 891.0, 891.0, 892.0, 896.0, 899.0, 895.0, 892.0, 892.0, 891.0, 892.0, 892.0, 890.0, 888.0, 887.0, 887.0, 884.0, 890.0, 892.0, 895.0, 897.0, 893.0, 890.0, 888.0, 888.0, 888.0, 887.0, 887.0, 892.0, 898.0, 893.0, 892.0, 891.0, 889.0, 894.0, 892.0, 892.0, 897.0, 890.0, 889.0, 887.0, 888.0, 887.0, 891.0, 886.0, 887.0, 892.0, 894.0, 896.0, 900.0, 899.0, 898.0, 898.0, 898.0, 898.0, 892.0, 898.0, 895.0, 892.0, 894.0, 891.0, 889.0, 892.0, 893.0, 895.0, 897.0, 896.0, 894.0, 889.0, 883.0, 883.0, 890.0, 891.0, 893.0, 891.0, 889.0, 892.0, 893.0, 889.0, 889.0, 888.0, 892.0, 894.0, 894.0, 893.0, 898.0, 903.0, 900.0, 896.0, 897.0, 897.0, 892.0, 887.0, 885.0, 889.0, 894.0, 899.0, 894.0, 893.0, 889.0, 885.0, 884.0, 886.0, 891.0, 891.0, 895.0, 896.0, 896.0]
    },
    "slices": {}
  }
}