{
  "AcquisitionMatrixPE": 64,
  "AcquisitionNumber": 1,
  "AcquisitionTime": "18:16:44.797500",
  "BandwidthPerPixelPhaseEncode": 40.064,
  "BaseResolution": 64,
  "BodyPartExamined": "BRAIN",
  "ConsistencyInfo": "N4_VD13D_LATEST_20130810",
  "ConversionSoftware": "dcm2niix",
  "ConversionSoftwareVersion": "v1.0.20191031",
  "DerivedVendorReportedEchoSpacing": 0.000780002,
  "DeviceSerialNumber": "67007",
  "DwellTime": 5.3e-06,
  "EchoTime": 0.03,
  "EchoTrainLength": 31,
  "EffectiveEchoSpacing": 0.000390001,
  "FlipAngle": 75,
  "ImageOrientationPatientDICOM": [1, -2.00395e-10, 4.3693e-11, 2.05103e-10, 0.977046, -0.21303],
  "ImageType": [
    "ORIGINAL",
    "PRIMARY",
    "M",
    "ND",
    "NORM",
    "MOSAIC"
],
  "ImagingFrequency": 123.211,
  "InPlanePhaseEncodingDirectionDICOM": "ROW",
  "InstitutionAddress": "Perth_Drive_100_London_Ontario_CA_N6A_5K8",
  "InstitutionName": "Robarts-CFMM",
  "InstitutionalDepartmentName": "CFMM",
  "MRAcquisitionType": "2D",
  "MagneticFieldStrength": 3,
  "Manufacturer": "Siemens",
  "ManufacturersModelName": "Prisma_fit",
  "Modality": "MR",
  "ParallelReductionFactorInPlane": 2,
  "PartialFourier": 1,
  "PatientPosition": "HFS",
  "PercentPhaseFOV": 100,
  "PhaseEncodingDirection": "i",
  "PhaseEncodingSteps": 63,
  "PhaseResolution": 1,
  "PixelBandwidth": 1475,
  "ProcedureStepDescription": "Owen_Naci",
  "ProtocolName": "Resting_State_recovery",
  "PulseSequenceDetails": "%SiemensSeq%_ep2d_bold",
  "ReceiveCoilActiveElements": "HEA;HEP",
  "ReceiveCoilName": "Head_32",
  "ReconMatrixPE": 64,
  "RefLinesPE": 24,
  "RepetitionTime": 2,
  "SAR": 0.0813432,
  "ScanOptions": "FS",
  "ScanningSequence": "EP",
  "SequenceName": "_epfid2d1_64",
  "SequenceVariant": "SK",
  "SeriesDescription": "Resting_State_recovery",
  "SeriesNumber": 28,
  "ShimSetting": [5242, -6117, -3817, 297, -14, 115, -82, 6],
  "SliceThickness": 3,
  "SliceTiming": [1.92, 1.86, 1.8, 1.74, 1.68, 1.62, 1.56, 1.5, 1.44, 1.38, 1.32, 1.26, 1.2, 1.14, 1.08, 1.02, 0.96, 0.9, 0.84, 0.78, 0.72, 0.66, 0.6, 0.54, 0.48, 0.42, 0.36, 0.3, 0.24, 0.18, 0.12, 0.06, 0],
  "SoftwareVersions": "syngo_MR_D13D",
  "SpacingBetweenSlices": 3.75,
  "StationName": "AWP67007",
  "TaskName": "restrecovery",
  "TotalReadoutTime": 0.0245701,
  "TxRefAmp": 257.03,
  "dcmmeta_affine": [
    [-3.0, 6.153090259530813e-10, -6.51852468707472e-16, 99.65092468261719],
    [6.01184990678405e-10, 2.9311366081237793, -0.7988640069961548, -67.37769317626953],
    [1.31078994880518e-10, 0.6390911936759949, 3.6639208793640137, -56.40758514404297],
    [0.0, 0.0, 0.0, 1.0]
],
  "dcmmeta_reorient_transform": [
    [0.0, -1.0, 0.0, 63.0],
    [1.0, 0.0, 0.0, 0.0],
    [0.0, 0.0, 1.0, 0.0],
    [0.0, 0.0, 0.0, 1.0]
],
  "dcmmeta_shape": [64, 64, 33, 256],
  "dcmmeta_slice_dim": 2,
  "dcmmeta_version": 0.6,
  "global": {
    "const": {
      "AcquisitionMatrix": [0, 64, 64, 0],
      "AngioFlag": "N",
      "BitsAllocated": 16,
      "BitsStored": 12,
      "BodyPartExamined": "BRAIN",
      "Columns": 384,
      "EchoNumbers": 1,
      "EchoTime": 30.0,
      "EchoTrainLength": 31,
      "FlipAngle": 75.0,
      "HighBit": 11,
      "ImageOrientationPatient": [1.0, -2.00395e-10, 4.3693e-11, 2.05103e-10, 0.97704557251007, -0.2130303951047],
      "ImagePositionPatient": [-579.65092718494, -586.2657984785, 86.109751024373],
      "ImageType": [
        "ORIGINAL",
        "PRIMARY",
        "M",
        "ND",
        "NORM",
        "MOSAIC"
],
      "ImagedNucleus": "1H",
      "ImagingFrequency": 123.210993,
      "InPlanePhaseEncodingDirection": "ROW",
      "MRAcquisitionType": "2D",
      "MagneticFieldStrength": 3.0,
      "Manufacturer": "SIEMENS",
      "ManufacturerModelName": "Prisma_fit",
      "Modality": "MR",
      "NumberOfAverages": 1.0,
      "NumberOfPhaseEncodingSteps": 63,
      "PercentPhaseFieldOfView": 100.0,
      "PercentSampling": 100.0,
      "PerformedProcedureStepStartTime": "150817.850000",
      "PhotometricInterpretation": "MONOCHROME2",
      "PixelBandwidth": 1475.0,
      "PixelRepresentation": 0,
      "PixelSpacing": [3.0, 3.0],
      "ProtocolName": "Resting State_recovery",
      "RepetitionTime": 2000.0,
      "Rows": 384,
      "SAR": 0.08134317669938,
      "SamplesPerPixel": 1,
      "ScanOptions": "FS",
      "ScanningSequence": "EP",
      "SequenceName": "*epfid2d1_64",
      "SequenceVariant": "SK",
      "SeriesDescription": "Resting State_recovery",
      "SeriesNumber": 28,
      "SeriesTime": "181742.630000",
      "SliceLocation": -40.759283697934,
      "SliceThickness": 3.0,
      "SmallestImagePixelValue": 0,
      "SoftwareVersions": "syngo MR D13D",
      "SpacingBetweenSlices": 3.7499999803191,
      "SpecificCharacterSet": "ISO_IR 100",
      "StudyID": "1",
      "StudyTime": "150817.803000",
      "TimeOfLastCalibration": ["123723.000000", "123723.000000"],
      "TransmitCoilName": "Body",
      "VariableFlipAngleFlag": "N",
      "WindowCenterWidthExplanation": "Algo1",
      "dBdt": 0.0},
    "slices": {}
  },
  "time": {
    "samples": {
      "AcquisitionNumber": [1, 2, 3, 4, 5, 6, 7, 8, 9, 10, 11, 12, 13, 14, 15, 16, 17, 18, 19, 20, 21, 22, 23, 24, 25, 26, 27, 28, 29, 30, 31, 32, 33, 34, 35, 36, 37, 38, 39, 40, 41, 42, 43, 44, 45, 46, 47, 48, 49, 50, 51, 52, 53, 54, 55, 56, 57, 58, 59, 60, 61, 62, 63, 64, 65, 66, 67, 68, 69, 70, 71, 72, 73, 74, 75, 76, 77, 78, 79, 80, 81, 82, 83, 84, 85, 86, 87, 88, 89, 90, 91, 92, 93, 94, 95, 96, 97, 98, 99, 100, 101, 102, 103, 104, 105, 106, 107, 108, 109, 110, 111, 112, 113, 114, 115, 116, 117, 118, 119, 120, 121, 122, 123, 124, 125, 126, 127, 128, 129, 130, 131, 132, 133, 134, 135, 136, 137, 138, 139, 140, 141, 142, 143, 144, 145, 146, 147, 148, 149, 150, 151, 152, 153, 154, 155, 156, 157, 158, 159, 160, 161, 162, 163, 164, 165, 166, 167, 168, 169, 170, 171, 172, 173, 174, 175, 176, 177, 178, 179, 180, 181, 182, 183, 184, 185, 186, 187, 188, 189, 190, 191, 192, 193, 194, 195, 196, 197, 198, 199, 200, 201, 202, 203, 204, 205, 206, 207, 208, 209, 210, 211, 212, 213, 214, 215, 216, 217, 218, 219, 220, 221, 222, 223, 224, 225, 226, 227, 228, 229, 230, 231, 232, 233, 234, 235, 236, 237, 238, 239, 240, 241, 242, 243, 244, 245, 246, 247, 248, 249, 250, 251, 252, 253, 254, 255, 256],
      "AcquisitionTime": ["181644.797500", "181646.797500", "181648.797500", "181650.797500", "181652.797500", "181654.797500", "181656.797500", "181658.797500", "181700.797500", "181702.797500", "181704.797500", "181706.797500", "181708.797500", "181710.797500", "181712.797500", "181714.797500", "181716.797500", "181718.797500", "181720.797500", "181722.797500", "181724.797500", "181726.797500", "181728.797500", "181730.797500", "181732.797500", "181734.797500", "181736.797500", "181738.797500", "181740.797500", "181742.797500", "181744.797500", "181746.797500", "181748.797500", "181750.797500", "181752.797500", "181754.797500", "181756.797500", "181758.797500", "181800.797500", "181802.797500", "181804.797500", "181806.797500", "181808.797500", "181810.797500", "181812.797500", "181814.797500", "181816.797500", "181818.797500", "181820.797500", "181822.797500", "181824.797500", "181826.797500", "181828.797500", "181830.797500", "181832.797500", "181834.797500", "181836.797500", "181838.797500", "181840.797500", "181842.797500", "181844.797500", "181846.797500", "181848.797500", "181850.797500", "181852.797500", "181854.797500", "181856.797500", "181858.797500", "181900.797500", "181902.797500", "181904.797500", "181906.797500", "181908.797500", "181910.797500", "181912.797500", "181914.797500", "181916.797500", "181918.797500", "181920.797500", "181922.797500", "181924.797500", "181926.797500", "181928.797500", "181930.797500", "181932.797500", "181934.797500", "181936.800000", "181938.800000", "181940.800000", "181942.800000", "181944.800000", "181946.800000", "181948.800000", "181950.800000", "181952.800000", "181954.800000", "181956.800000", "181958.800000", "182000.800000", "182002.800000", "182004.800000", "182006.800000", "182008.800000", "182010.800000", "182012.800000", "182014.800000", "182016.800000", "182018.800000", "182020.800000", "182022.800000", "182024.800000", "182026.800000", "182028.800000", "182030.800000", "182032.800000", "182034.800000", "182036.800000", "182038.800000", "182040.800000", "182042.800000", "182044.800000", "182046.800000", "182048.800000", "182050.800000", "182052.800000", "182054.800000", "182056.800000", "182058.800000", "182100.800000", "182102.800000", "182104.800000", "182106.800000", "182108.800000", "182110.800000", "182112.800000", "182114.800000", "182116.800000", "182118.800000", "182120.800000", "182122.800000", "182124.800000", "182126.800000", "182128.800000", "182130.800000", "182132.800000", "182134.800000", "182136.800000", "182138.800000", "182140.800000", "182142.800000", "182144.800000", "182146.800000", "182148.800000", "182150.800000", "182152.800000", "182154.800000", "182156.800000", "182158.800000", "182200.800000", "182202.800000", "182204.800000", "182206.800000", "182208.800000", "182210.800000", "182212.800000", "182214.800000", "182216.800000", "182218.800000", "182220.800000", "182222.800000", "182224.800000", "182226.800000", "182228.800000", "182230.800000", "182232.800000", "182234.800000", "182236.800000", "182238.800000", "182240.800000", "182242.800000", "182244.800000", "182246.800000", "182248.800000", "182250.800000", "182252.800000", "182254.800000", "182256.800000", "182258.800000", "182300.800000", "182302.800000", "182304.800000", "182306.800000", "182308.800000", "182310.800000", "182312.800000", "182314.800000", "182316.800000", "182318.800000", "182320.800000", "182322.800000", "182324.800000", "182326.800000", "182328.800000", "182330.800000", "182332.800000", "182334.800000", "182336.800000", "182338.800000", "182340.800000", "182342.800000", "182344.800000", "182346.800000", "182348.800000", "182350.800000", "182352.800000", "182354.800000", "182356.800000", "182358.800000", "182400.800000", "182402.800000", "182404.800000", "182406.800000", "182408.800000", "182410.800000", "182412.800000", "182414.800000", "182416.800000", "182418.800000", "182420.800000", "182422.800000", "182424.800000", "182426.800000", "182428.800000", "182430.800000", "182432.800000", "182434.800000", "182436.800000", "182438.800000", "182440.800000", "182442.800000", "182444.800000", "182446.800000", "182448.800000", "182450.800000", "182452.800000", "182454.800000", "182456.800000", "182458.800000", "182500.800000", "182502.800000", "182504.800000", "182506.800000", "182508.800000", "182510.800000", "182512.800000", "182514.800000"],
      "ContentTime": ["181742.634000", "181742.638000", "181742.641000", "181742.644000", "181742.646000", "181742.649000", "181742.652000", "181742.654000", "181742.657000", "181742.660000", "181742.663000", "181742.666000", "181742.668000", "181742.671000", "181742.674000", "181742.677000", "181742.680000", "181742.683000", "181742.685000", "181742.688000", "181742.691000", "181742.694000", "181742.696000", "181742.699000", "181742.702000", "181742.705000", "181742.708000", "181742.713000", "181742.716000", "181822.628000", "181822.632000", "181822.635000", "181822.638000", "181822.641000", "181822.643000", "181822.646000", "181822.649000", "181822.652000", "181822.654000", "181822.657000", "181822.660000", "181822.663000", "181822.668000", "181822.671000", "181822.674000", "181822.677000", "181822.680000", "181822.682000", "181822.685000", "181902.627000", "181902.631000", "181902.634000", "181902.637000", "181902.639000", "181902.642000", "181902.645000", "181902.648000", "181902.651000", "181902.654000", "181902.657000", "181902.659000", "181902.662000", "181902.665000", "181902.668000", "181902.671000", "181902.674000", "181902.677000", "181902.679000", "181902.682000", "181942.628000", "181942.631000", "181942.634000", "181942.637000", "181942.640000", "181942.642000", "181942.645000", "181942.648000", "181942.651000", "181942.654000", "181942.657000", "181942.660000", "181942.663000", "181942.666000", "181942.669000", "181942.672000", "181942.675000", "181942.678000", "181942.681000", "181942.685000", "182022.628000", "182022.632000", "182022.634000", "182022.637000", "182022.640000", "182022.643000", "182022.645000", "182022.648000", "182022.651000", "182022.653000", "182022.656000", "182022.659000", "182022.661000", "182022.664000", "182022.667000", "182022.670000", "182022.673000", "182022.676000", "182022.678000", "182022.681000", "182102.629000", "182102.636000", "182102.639000", "182102.642000", "182102.645000", "182102.652000", "182102.655000", "182102.658000", "182102.661000", "182102.668000", "182102.671000", "182102.673000", "182102.676000", "182102.679000", "182102.682000", "182102.684000", "182102.687000", "182102.690000", "182102.692000", "182102.695000", "182142.627000", "182142.630000", "182142.633000", "182142.636000", "182142.639000", "182142.641000", "182142.644000", "182142.647000", "182142.649000", "182142.652000", "182142.655000", "182142.658000", "182142.661000", "182142.663000", "182142.666000", "182142.669000", "182142.672000", "182142.674000", "182142.677000", "182142.680000", "182222.628000", "182222.631000", "182222.634000", "182222.637000", "182222.640000", "182222.643000", "182222.646000", "182222.649000", "182222.651000", "182222.654000", "182222.657000", "182222.660000", "182222.663000", "182222.665000", "182222.668000", "182222.671000", "182222.674000", "182222.676000", "182222.679000", "182222.682000", "182302.627000", "182302.631000", "182302.634000", "182302.637000", "182302.640000", "182302.647000", "182302.650000", "182302.653000", "182302.656000", "182302.658000", "182302.661000", "182302.664000", "182302.667000", "182302.670000", "182302.672000", "182302.675000", "182302.678000", "182302.681000", "182302.684000", "182302.686000", "182342.628000", "182342.631000", "182342.635000", "182342.637000", "182342.640000", "182342.643000", "182342.646000", "182342.648000", "182342.651000", "182342.654000", "182342.657000", "182342.660000", "182342.662000", "182342.665000", "182342.668000", "182342.671000", "182342.674000", "182342.677000", "182342.680000", "182342.683000", "182422.628000", "182422.632000", "182422.635000", "182422.638000", "182422.640000", "182422.643000", "182422.646000", "182422.649000", "182422.652000", "182422.655000", "182422.657000", "182422.660000", "182422.663000", "182422.666000", "182422.668000", "182422.671000", "182422.674000", "182422.677000", "182422.680000", "182422.683000", "182502.628000", "182502.631000", "182502.634000", "182502.637000", "182502.639000", "182502.642000", "182502.645000", "182502.648000", "182502.650000", "182502.654000", "182502.656000", "182502.659000", "182502.662000", "182502.665000", "182502.668000", "182502.671000", "182502.674000", "182502.677000", "182502.681000", "182502.684000", "182515.822000", "182515.825000", "182515.829000", "182515.832000", "182515.835000", "182515.838000", "182515.841000"],
      "InstanceCreationTime": ["181742.634000", "181742.638000", "181742.641000", "181742.644000", "181742.646000", "181742.649000", "181742.652000", "181742.654000", "181742.657000", "181742.660000", "181742.663000", "181742.666000", "181742.668000", "181742.671000", "181742.674000", "181742.677000", "181742.680000", "181742.683000", "181742.685000", "181742.688000", "181742.691000", "181742.694000", "181742.696000", "181742.699000", "181742.702000", "181742.705000", "181742.708000", "181742.713000", "181742.716000", "181822.628000", "181822.632000", "181822.635000", "181822.638000", "181822.641000", "181822.643000", "181822.646000", "181822.649000", "181822.652000", "181822.654000", "181822.657000", "181822.660000", "181822.663000", "181822.668000", "181822.671000", "181822.674000", "181822.677000", "181822.680000", "181822.682000", "181822.685000", "181902.627000", "181902.631000", "181902.634000", "181902.637000", "181902.639000", "181902.642000", "181902.645000", "181902.648000", "181902.651000", "181902.654000", "181902.657000", "181902.659000", "181902.662000", "181902.665000", "181902.668000", "181902.671000", "181902.674000", "181902.677000", "181902.679000", "181902.682000", "181942.628000", "181942.631000", "181942.634000", "181942.637000", "181942.640000", "181942.642000", "181942.645000", "181942.648000", "181942.651000", "181942.654000", "181942.657000", "181942.660000", "181942.663000", "181942.666000", "181942.669000", "181942.672000", "181942.675000", "181942.678000", "181942.681000", "181942.685000", "182022.628000", "182022.632000", "182022.634000", "182022.637000", "182022.640000", "182022.643000", "182022.645000", "182022.648000", "182022.651000", "182022.653000", "182022.656000", "182022.659000", "182022.661000", "182022.664000", "182022.667000", "182022.670000", "182022.673000", "182022.676000", "182022.678000", "182022.681000", "182102.629000", "182102.636000", "182102.639000", "182102.642000", "182102.645000", "182102.652000", "182102.655000", "182102.658000", "182102.661000", "182102.668000", "182102.671000", "182102.673000", "182102.676000", "182102.679000", "182102.682000", "182102.684000", "182102.687000", "182102.690000", "182102.692000", "182102.695000", "182142.627000", "182142.630000", "182142.633000", "182142.636000", "182142.639000", "182142.641000", "182142.644000", "182142.647000", "182142.649000", "182142.652000", "182142.655000", "182142.658000", "182142.661000", "182142.663000", "182142.666000", "182142.669000", "182142.672000", "182142.674000", "182142.677000", "182142.680000", "182222.628000", "182222.631000", "182222.634000", "182222.637000", "182222.640000", "182222.643000", "182222.646000", "182222.649000", "182222.651000", "182222.654000", "182222.657000", "182222.660000", "182222.663000", "182222.665000", "182222.668000", "182222.671000", "182222.674000", "182222.676000", "182222.679000", "182222.682000", "182302.627000", "182302.631000", "182302.634000", "182302.637000", "182302.640000", "182302.647000", "182302.650000", "182302.653000", "182302.656000", "182302.658000", "182302.661000", "182302.664000", "182302.667000", "182302.670000", "182302.672000", "182302.675000", "182302.678000", "182302.681000", "182302.684000", "182302.686000", "182342.628000", "182342.631000", "182342.635000", "182342.637000", "182342.640000", "182342.643000", "182342.646000", "182342.648000", "182342.651000", "182342.654000", "182342.657000", "182342.660000", "182342.662000", "182342.665000", "182342.668000", "182342.671000", "182342.674000", "182342.677000", "182342.680000", "182342.683000", "182422.628000", "182422.632000", "182422.635000", "182422.638000", "182422.640000", "182422.643000", "182422.646000", "182422.649000", "182422.652000", "182422.655000", "182422.657000", "182422.660000", "182422.663000", "182422.666000", "182422.668000", "182422.671000", "182422.674000", "182422.677000", "182422.680000", "182422.683000", "182502.628000", "182502.631000", "182502.634000", "182502.637000", "182502.639000", "182502.642000", "182502.645000", "182502.648000", "182502.650000", "182502.654000", "182502.656000", "182502.659000", "182502.662000", "182502.665000", "182502.668000", "182502.671000", "182502.674000", "182502.677000", "182502.681000", "182502.684000", "182515.822000", "182515.825000", "182515.829000", "182515.832000", "182515.835000", "182515.838000", "182515.841000"],
      "InstanceNumber": [1, 2, 3, 4, 5, 6, 7, 8, 9, 10, 11, 12, 13, 14, 15, 16, 17, 18, 19, 20, 21, 22, 23, 24, 25, 26, 27, 28, 29, 30, 31, 32, 33, 34, 35, 36, 37, 38, 39, 40, 41, 42, 43, 44, 45, 46, 47, 48, 49, 50, 51, 52, 53, 54, 55, 56, 57, 58, 59, 60, 61, 62, 63, 64, 65, 66, 67, 68, 69, 70, 71, 72, 73, 74, 75, 76, 77, 78, 79, 80, 81, 82, 83, 84, 85, 86, 87, 88, 89, 90, 91, 92, 93, 94, 95, 96, 97, 98, 99, 100, 101, 102, 103, 104, 105, 106, 107, 108, 109, 110, 111, 112, 113, 114, 115, 116, 117, 118, 119, 120, 121, 122, 123, 124, 125, 126, 127, 128, 129, 130, 131, 132, 133, 134, 135, 136, 137, 138, 139, 140, 141, 142, 143, 144, 145, 146, 147, 148, 149, 150, 151, 152, 153, 154, 155, 156, 157, 158, 159, 160, 161, 162, 163, 164, 165, 166, 167, 168, 169, 170, 171, 172, 173, 174, 175, 176, 177, 178, 179, 180, 181, 182, 183, 184, 185, 186, 187, 188, 189, 190, 191, 192, 193, 194, 195, 196, 197, 198, 199, 200, 201, 202, 203, 204, 205, 206, 207, 208, 209, 210, 211, 212, 213, 214, 215, 216, 217, 218, 219, 220, 221, 222, 223, 224, 225, 226, 227, 228, 229, 230, 231, 232, 233, 234, 235, 236, 237, 238, 239, 240, 241, 242, 243, 244, 245, 246, 247, 248, 249, 250, 251, 252, 253, 254, 255, 256],
      "LargestImagePixelValue": [919, 728, 903, 730, 793, 1014, 745, 996, 720, 810, 746, 739, 842, 734, 770, 767, 831, 814, 724, 744, 802, 735, 920, 780, 736, 877, 741, 737, 771, 726, 995, 745, 795, 838, 734, 814, 816, 732, 805, 774, 739, 747, 729, 751, 777, 737, 738, 867, 752, 732, 766, 728, 753, 721, 743, 891, 734, 739, 800, 731, 849, 797, 730, 714, 866, 730, 834, 834, 731, 756, 752, 722, 865, 744, 784, 730, 772, 777, 725, 748, 765, 771, 730, 774, 736, 947, 739, 842, 763, 762, 734, 826, 748, 731, 731, 818, 749, 793, 762, 800, 741, 752, 846, 763, 849, 726, 883, 758, 763, 731, 814, 750, 835, 919, 760, 755, 723, 822, 739, 917, 755, 742, 811, 741, 838, 751, 832, 753, 757, 808, 742, 767, 804, 827, 764, 912, 756, 757, 808, 783, 788, 804, 770, 743, 919, 733, 860, 750, 757, 737, 908, 740, 956, 730, 816, 792, 751, 905, 771, 780, 740, 826, 754, 857, 783, 751, 757, 732, 813, 746, 757, 753, 832, 773, 725, 804, 734, 729, 965, 939, 899, 863, 755, 824, 739, 804, 749, 742, 842, 744, 742, 731, 799, 731, 813, 739, 866, 729, 826, 742, 740, 771, 893, 740, 864, 764, 755, 935, 781, 831, 740, 758, 760, 744, 872, 735, 719, 1043, 947, 759, 787, 834, 772, 743, 755, 759, 740, 931, 774, 905, 746, 905, 831, 822, 764, 950, 746, 752, 899, 852, 740, 750, 937, 797, 746, 753, 883, 739, 748, 925, 790, 735, 733, 859, 744, 935],
      "WindowCenter": [441.0, 438.0, 440.0, 438.0, 440.0, 442.0, 438.0, 440.0, 436.0, 438.0, 438.0, 437.0, 438.0, 437.0, 438.0, 437.0, 437.0, 437.0, 437.0, 436.0, 437.0, 437.0, 438.0, 436.0, 435.0, 437.0, 436.0, 436.0, 437.0, 435.0, 437.0, 435.0, 436.0, 435.0, 436.0, 436.0, 435.0, 434.0, 434.0, 434.0, 434.0, 434.0, 435.0, 437.0, 437.0, 436.0, 436.0, 437.0, 436.0, 435.0, 435.0, 436.0, 436.0, 436.0, 436.0, 437.0, 436.0, 436.0, 438.0, 436.0, 437.0, 436.0, 436.0, 436.0, 437.0, 436.0, 438.0, 437.0, 436.0, 436.0, 437.0, 436.0, 437.0, 436.0, 437.0, 437.0, 437.0, 437.0, 436.0, 437.0, 437.0, 437.0, 436.0, 437.0, 436.0, 438.0, 436.0, 437.0, 435.0, 435.0, 435.0, 436.0, 435.0, 436.0, 436.0, 438.0, 437.0, 437.0, 437.0, 437.0, 436.0, 437.0, 437.0, 437.0, 438.0, 436.0, 438.0, 436.0, 437.0, 437.0, 437.0, 437.0, 438.0, 438.0, 436.0, 436.0, 435.0, 438.0, 437.0, 439.0, 437.0, 437.0, 438.0, 436.0, 438.0, 436.0, 437.0, 436.0, 437.0, 438.0, 437.0, 438.0, 437.0, 438.0, 437.0, 438.0, 437.0, 438.0, 438.0, 438.0, 437.0, 437.0, 437.0, 437.0, 439.0, 438.0, 439.0, 437.0, 438.0, 437.0, 439.0, 437.0, 439.0, 437.0, 437.0, 438.0, 437.0, 439.0, 438.0, 437.0, 438.0, 438.0, 438.0, 439.0, 437.0, 437.0, 437.0, 436.0, 437.0, 436.0, 436.0, 436.0, 437.0, 436.0, 434.0, 436.0, 436.0, 437.0, 440.0, 439.0, 437.0, 435.0, 434.0, 435.0, 434.0, 435.0, 436.0, 435.0, 436.0, 436.0, 436.0, 437.0, 438.0, 437.0, 437.0, 437.0, 439.0, 437.0, 438.0, 437.0, 437.0, 437.0, 438.0, 437.0, 438.0, 437.0, 438.0, 439.0, 438.0, 439.0, 437.0, 439.0, 439.0, 439.0, 440.0, 438.0, 438.0, 441.0, 440.0, 437.0, 437.0, 438.0, 438.0, 437.0, 438.0, 438.0, 437.0, 439.0, 438.0, 440.0, 438.0, 440.0, 438.0, 438.0, 437.0, 439.0, 437.0, 437.0, 438.0, 437.0, 436.0, 437.0, 439.0, 438.0, 437.0, 437.0, 438.0, 436.0, 438.0, 439.0, 438.0, 437.0, 438.0, 439.0, 438.0, 439.0],
      "WindowWidth": [923.0, 917.0, 919.0, 917.0, 920.0, 923.0, 917.0, 920.0, 914.0, 917.0, 916.0, 916.0, 917.0, 915.0, 916.0, 915.0, 916.0, 915.0, 914.0, 913.0, 915.0, 915.0, 917.0, 913.0, 912.0, 915.0, 913.0, 914.0, 914.0, 912.0, 915.0, 912.0, 913.0, 912.0, 914.0, 913.0, 912.0, 909.0, 910.0, 909.0, 909.0, 911.0, 911.0, 915.0, 915.0, 914.0, 913.0, 915.0, 913.0, 912.0, 912.0, 913.0, 913.0, 914.0, 914.0, 915.0, 913.0, 913.0, 916.0, 914.0, 914.0, 913.0, 913.0, 914.0, 916.0, 914.0, 917.0, 915.0, 914.0, 913.0, 915.0, 913.0, 915.0, 913.0, 915.0, 915.0, 916.0, 915.0, 913.0, 915.0, 915.0, 915.0, 913.0, 914.0, 913.0, 916.0, 914.0, 915.0, 912.0, 911.0, 911.0, 913.0, 912.0, 914.0, 913.0, 917.0, 915.0, 915.0, 915.0, 914.0, 914.0, 914.0, 916.0, 915.0, 916.0, 914.0, 916.0, 914.0, 915.0, 915.0, 915.0, 915.0, 916.0, 916.0, 914.0, 913.0, 913.0, 916.0, 915.0, 918.0, 915.0, 915.0, 916.0, 914.0, 916.0, 913.0, 915.0, 914.0, 916.0, 917.0, 915.0, 916.0, 916.0, 917.0, 915.0, 917.0, 915.0, 916.0, 917.0, 916.0, 915.0, 915.0, 916.0, 915.0, 919.0, 917.0, 919.0, 916.0, 918.0, 915.0, 918.0, 915.0, 919.0, 915.0, 916.0, 916.0, 915.0, 918.0, 916.0, 915.0, 916.0, 917.0, 917.0, 918.0, 915.0, 915.0, 914.0, 913.0, 915.0, 913.0, 913.0, 913.0, 914.0, 913.0, 911.0, 913.0, 913.0, 915.0, 920.0, 918.0, 914.0, 911.0, 909.0, 912.0, 910.0, 912.0, 913.0, 912.0, 914.0, 914.0, 914.0, 915.0, 916.0, 915.0, 915.0, 916.0, 918.0, 915.0, 917.0, 915.0, 915.0, 915.0, 917.0, 915.0, 917.0, 914.0, 916.0, 919.0, 916.0, 918.0, 915.0, 919.0, 918.0, 919.0, 921.0, 918.0, 917.0, 922.0, 920.0, 915.0, 916.0, 917.0, 917.0, 915.0, 916.0, 916.0, 915.0, 918.0, 916.0, 919.0, 917.0, 919.0, 917.0, 917.0, 915.0, 917.0, 914.0, 915.0, 916.0, 915.0, 913.0, 915.0, 917.0, 916.0, 915.0, 915.0, 917.0, 914.0, 916.0, 918.0, 916.0, 915.0, 917.0, 918.0, 917.0, 918.0]
    },
    "slices": {}
  }
}