{
  "AcquisitionMatrixPE": 64,
  "AcquisitionNumber": 1,
  "AcquisitionTime": "17:35:0.362500",
  "BandwidthPerPixelPhaseEncode": 40.064,
  "BaseResolution": 64,
  "BodyPartExamined": "BRAIN",
  "ConsistencyInfo": "N4_VD13D_LATEST_20130810",
  "ConversionSoftware": "dcm2niix",
  "ConversionSoftwareVersion": "v1.0.20191031",
  "DerivedVendorReportedEchoSpacing": 0.000780002,
  "DeviceSerialNumber": "67007",
  "DwellTime": 5.3e-06,
  "EchoTime": 0.03,
  "EchoTrainLength": 31,
  "EffectiveEchoSpacing": 0.000390001,
  "FlipAngle": 75,
  "ImageOrientationPatientDICOM": [0.999191, 0.0400351, 0.00385328, -0.0401317, 0.998758, 0.0295302],
  "ImageType": [
    "ORIGINAL",
    "PRIMARY",
    "M",
    "ND",
    "NORM",
    "MOSAIC"
],
  "ImagingFrequency": 123.211,
  "InPlanePhaseEncodingDirectionDICOM": "ROW",
  "InstitutionAddress": "Perth_Drive_100_London_Ontario_CA_N6A_5K8",
  "InstitutionName": "Robarts-CFMM",
  "InstitutionalDepartmentName": "CFMM",
  "MRAcquisitionType": "2D",
  "MagneticFieldStrength": 3,
  "Manufacturer": "Siemens",
  "ManufacturersModelName": "Prisma_fit",
  "Modality": "MR",
  "ParallelReductionFactorInPlane": 2,
  "PartialFourier": 1,
  "PatientPosition": "HFS",
  "PercentPhaseFOV": 100,
  "PhaseEncodingDirection": "i",
  "PhaseEncodingSteps": 63,
  "PhaseResolution": 1,
  "PixelBandwidth": 1475,
  "ProcedureStepDescription": "Owen_Naci",
  "ProtocolName": "Taken_recov",
  "PulseSequenceDetails": "%SiemensSeq%_ep2d_bold",
  "ReceiveCoilActiveElements": "HEA;HEP",
  "ReceiveCoilName": "Head_32",
  "ReconMatrixPE": 64,
  "RefLinesPE": 24,
  "RepetitionTime": 2,
  "SAR": 0.090589,
  "ScanOptions": "FS",
  "ScanningSequence": "EP",
  "SequenceName": "_epfid2d1_64",
  "SequenceVariant": "SK",
  "SeriesDescription": "Taken_recov",
  "SeriesNumber": 26,
  "ShimSetting": [5245, -6181, -3804, 488, -41, 20, 22, 9],
  "SliceThickness": 3,
  "SliceTiming": [1.92, 1.86, 1.8, 1.74, 1.68, 1.62, 1.56, 1.5, 1.44, 1.38, 1.32, 1.26, 1.2, 1.14, 1.08, 1.02, 0.96, 0.9, 0.84, 0.78, 0.72, 0.66, 0.6, 0.54, 0.48, 0.42, 0.36, 0.3, 0.24, 0.18, 0.12, 0.06, 0],
  "SoftwareVersions": "syngo_MR_D13D",
  "SpacingBetweenSlices": 3.75,
  "StationName": "AWP67007",
  "TaskName": "audiorecovery",
  "TotalReadoutTime": 0.0245701,
  "TxRefAmp": 271.966,
  "dcmmeta_affine": [
    [-2.997572422027588, -0.12039495259523392, 0.009998445399105549, 95.10115814208984],
    [-0.12010534852743149, 2.9962737560272217, 0.11122836172580719, -83.29228973388672],
    [0.011559844017028809, -0.08859045803546906, 3.7483365535736084, -38.92499923706055],
    [0.0, 0.0, 0.0, 1.0]
],
  "dcmmeta_reorient_transform": [
    [0.0, -1.0, 0.0, 63.0],
    [1.0, 0.0, 0.0, 0.0],
    [0.0, 0.0, 1.0, 0.0],
    [0.0, 0.0, 0.0, 1.0]
],
  "dcmmeta_shape": [64, 64, 33, 155],
  "dcmmeta_slice_dim": 2,
  "dcmmeta_version": 0.6,
  "global": {
    "const": {
      "AcquisitionMatrix": [0, 64, 64, 0],
      "AngioFlag": "N",
      "BitsAllocated": 16,
      "BitsStored": 12,
      "BodyPartExamined": "BRAIN",
      "Columns": 384,
      "EchoNumbers": 1,
      "EchoTime": 30.0,
      "EchoTrainLength": 31,
      "FlipAngle": 75.0,
      "HighBit": 11,
      "ImageOrientationPatient": [0.99919084349536, 0.04003511582398, 0.00385328119919, -0.0401316505348, 0.99875793900998, 0.02953015221575],
      "ImagePositionPatient": [-547.86468890673, -604.09362561128, -60.530245433874],
      "ImageType": [
        "ORIGINAL",
        "PRIMARY",
        "M",
        "ND",
        "NORM",
        "MOSAIC"
],
      "ImagedNucleus": "1H",
      "ImagingFrequency": 123.21121,
      "InPlanePhaseEncodingDirection": "ROW",
      "MRAcquisitionType": "2D",
      "MagneticFieldStrength": 3.0,
      "Manufacturer": "SIEMENS",
      "ManufacturerModelName": "Prisma_fit",
      "Modality": "MR",
      "NumberOfAverages": 1.0,
      "NumberOfPhaseEncodingSteps": 63,
      "PercentPhaseFieldOfView": 100.0,
      "PercentSampling": 100.0,
      "PerformedProcedureStepStartTime": "151755.248000",
      "PhotometricInterpretation": "MONOCHROME2",
      "PixelBandwidth": 1475.0,
      "PixelRepresentation": 0,
      "PixelSpacing": [3.0, 3.0],
      "ProtocolName": "Taken_recov",
      "RepetitionTime": 2000.0,
      "Rows": 384,
      "SAR": 0.09058903821397,
      "SamplesPerPixel": 1,
      "ScanOptions": "FS",
      "ScanningSequence": "EP",
      "SequenceName": "*epfid2d1_64",
      "SequenceVariant": "SK",
      "SeriesDescription": "Taken_recov",
      "SeriesNumber": 26,
      "SeriesTime": "173548.822000",
      "SliceLocation": -41.124694281951,
      "SliceThickness": 3.0,
      "SmallestImagePixelValue": 0,
      "SoftwareVersions": "syngo MR D13D",
      "SpacingBetweenSlices": 3.7499999368645,
      "SpecificCharacterSet": "ISO_IR 100",
      "StudyID": "1",
      "StudyTime": "151755.148000",
      "TimeOfLastCalibration": ["123723.000000", "123723.000000"],
      "TransmitCoilName": "Body",
      "VariableFlipAngleFlag": "N",
      "WindowCenterWidthExplanation": "Algo1",
      "dBdt": 0.0},
    "slices": {}
  },
  "time": {
    "samples": {
      "AcquisitionNumber": [1, 2, 3, 4, 5, 6, 7, 8, 9, 10, 11, 12, 13, 14, 15, 16, 17, 18, 19, 20, 21, 22, 23, 24, 25, 26, 27, 28, 29, 30, 31, 32, 33, 34, 35, 36, 37, 38, 39, 40, 41, 42, 43, 44, 45, 46, 47, 48, 49, 50, 51, 52, 53, 54, 55, 56, 57, 58, 59, 60, 61, 62, 63, 64, 65, 66, 67, 68, 69, 70, 71, 72, 73, 74, 75, 76, 77, 78, 79, 80, 81, 82, 83, 84, 85, 86, 87, 88, 89, 90, 91, 92, 93, 94, 95, 96, 97, 98, 99, 100, 101, 102, 103, 104, 105, 106, 107, 108, 109, 110, 111, 112, 113, 114, 115, 116, 117, 118, 119, 120, 121, 122, 123, 124, 125, 126, 127, 128, 129, 130, 131, 132, 133, 134, 135, 136, 137, 138, 139, 140, 141, 142, 143, 144, 145, 146, 147, 148, 149, 150, 151, 152, 153, 154, 155],
      "AcquisitionTime": ["173500.362500", "173502.362500", "173504.362500", "173506.362500", "173508.362500", "173510.362500", "173512.362500", "173514.362500", "173516.362500", "173518.362500", "173520.362500", "173522.362500", "173524.362500", "173526.362500", "173528.362500", "173530.362500", "173532.362500", "173534.362500", "173536.362500", "173538.362500", "173540.362500", "173542.362500", "173544.362500", "173546.362500", "173548.362500", "173550.362500", "173552.362500", "173554.362500", "173556.362500", "173558.362500", "173600.362500", "173602.362500", "173604.362500", "173606.362500", "173608.362500", "173610.362500", "173612.362500", "173614.362500", "173616.362500", "173618.362500", "173620.362500", "173622.362500", "173624.362500", "173626.362500", "173628.362500", "173630.362500", "173632.362500", "173634.362500", "173636.362500", "173638.362500", "173640.362500", "173642.362500", "173644.362500", "173646.362500", "173648.362500", "173650.362500", "173652.362500", "173654.362500", "173656.362500", "173658.362500", "173700.362500", "173702.362500", "173704.362500", "173706.362500", "173708.362500", "173710.362500", "173712.362500", "173714.362500", "173716.362500", "173718.362500", "173720.362500", "173722.362500", "173724.362500", "173726.362500", "173728.362500", "173730.362500", "173732.362500", "173734.362500", "173736.362500", "173738.362500", "173740.362500", "173742.362500", "173744.362500", "173746.362500", "173748.362500", "173750.362500", "173752.362500", "173754.362500", "173756.362500", "173758.362500", "173800.362500", "173802.362500", "173804.362500", "173806.362500", "173808.362500", "173810.362500", "173812.362500", "173814.362500", "173816.362500", "173818.362500", "173820.362500", "173822.362500", "173824.362500", "173826.362500", "173828.362500", "173830.362500", "173832.362500", "173834.362500", "173836.362500", "173838.362500", "173840.362500", "173842.362500", "173844.362500", "173846.362500", "173848.362500", "173850.362500", "173852.362500", "173854.362500", "173856.362500", "173858.362500", "173900.362500", "173902.362500", "173904.362500", "173906.362500", "173908.362500", "173910.362500", "173912.362500", "173914.362500", "173916.362500", "173918.362500", "173920.362500", "173922.362500", "173924.362500", "173926.362500", "173928.362500", "173930.362500", "173932.362500", "173934.362500", "173936.362500", "173938.362500", "173940.362500", "173942.362500", "173944.362500", "173946.362500", "173948.362500", "173950.362500", "173952.362500", "173954.362500", "173956.362500", "173958.362500", "174000.362500", "174002.362500", "174004.362500", "174006.362500", "174008.362500"],
      "ContentTime": ["173548.828000", "173548.832000", "173548.835000", "173548.837000", "173548.840000", "173548.843000", "173548.846000", "173548.849000", "173548.853000", "173548.856000", "173548.859000", "173548.862000", "173548.865000", "173548.867000", "173548.871000", "173548.874000", "173548.876000", "173548.879000", "173548.883000", "173548.886000", "173548.889000", "173548.892000", "173548.895000", "173548.898000", "173628.821000", "173628.824000", "173628.827000", "173628.830000", "173628.833000", "173628.836000", "173628.839000", "173628.842000", "173628.845000", "173628.848000", "173628.851000", "173628.854000", "173628.857000", "173628.860000", "173628.863000", "173628.866000", "173628.871000", "173628.874000", "173628.877000", "173628.879000", "173708.819000", "173708.823000", "173708.826000", "173708.829000", "173708.831000", "173708.834000", "173708.837000", "173708.840000", "173708.843000", "173708.847000", "173708.850000", "173708.853000", "173708.856000", "173708.859000", "173708.861000", "173708.864000", "173708.867000", "173708.870000", "173708.872000", "173708.875000", "173748.819000", "173748.824000", "173748.827000", "173748.829000", "173748.832000", "173748.835000", "173748.838000", "173748.841000", "173748.844000", "173748.847000", "173748.850000", "173748.853000", "173748.856000", "173748.859000", "173748.862000", "173748.864000", "173748.869000", "173748.872000", "173748.875000", "173748.878000", "173828.820000", "173828.823000", "173828.826000", "173828.829000", "173828.832000", "173828.835000", "173828.837000", "173828.840000", "173828.843000", "173828.847000", "173828.850000", "173828.853000", "173828.856000", "173828.858000", "173828.861000", "173828.864000", "173828.867000", "173828.870000", "173828.876000", "173828.879000", "173908.820000", "173908.823000", "173908.826000", "173908.829000", "173908.832000", "173908.835000", "173908.838000", "173908.841000", "173908.844000", "173908.847000", "173908.850000", "173908.853000", "173908.856000", "173908.859000", "173908.862000", "173908.865000", "173908.868000", "173908.871000", "173908.874000", "173908.877000", "173948.819000", "173948.822000", "173948.826000", "173948.828000", "173948.832000", "173948.835000", "173948.837000", "173948.840000", "173948.843000", "173948.846000", "173948.850000", "173948.853000", "173948.856000", "173948.859000", "173948.862000", "173948.864000", "173948.867000", "173948.870000", "173948.873000", "173948.875000", "173948.878000", "174008.839000", "174008.842000", "174008.845000", "174008.848000", "174008.851000", "174008.854000", "174008.857000", "174008.861000", "174008.864000", "174008.870000"],
      "InstanceCreationTime": ["173548.828000", "173548.832000", "173548.835000", "173548.837000", "173548.840000", "173548.843000", "173548.846000", "173548.849000", "173548.853000", "173548.856000", "173548.859000", "173548.862000", "173548.865000", "173548.867000", "173548.871000", "173548.874000", "173548.876000", "173548.879000", "173548.883000", "173548.886000", "173548.889000", "173548.892000", "173548.895000", "173548.898000", "173628.821000", "173628.824000", "173628.827000", "173628.830000", "173628.833000", "173628.836000", "173628.839000", "173628.842000", "173628.845000", "173628.848000", "173628.851000", "173628.854000", "173628.857000", "173628.860000", "173628.863000", "173628.866000", "173628.871000", "173628.874000", "173628.877000", "173628.879000", "173708.819000", "173708.823000", "173708.826000", "173708.829000", "173708.831000", "173708.834000", "173708.837000", "173708.840000", "173708.843000", "173708.847000", "173708.850000", "173708.853000", "173708.856000", "173708.859000", "173708.861000", "173708.864000", "173708.867000", "173708.870000", "173708.872000", "173708.875000", "173748.819000", "173748.824000", "173748.827000", "173748.829000", "173748.832000", "173748.835000", "173748.838000", "173748.841000", "173748.844000", "173748.847000", "173748.850000", "173748.853000", "173748.856000", "173748.859000", "173748.862000", "173748.864000", "173748.869000", "173748.872000", "173748.875000", "173748.878000", "173828.820000", "173828.823000", "173828.826000", "173828.829000", "173828.832000", "173828.835000", "173828.837000", "173828.840000", "173828.843000", "173828.847000", "173828.850000", "173828.853000", "173828.856000", "173828.858000", "173828.861000", "173828.864000", "173828.867000", "173828.870000", "173828.876000", "173828.879000", "173908.820000", "173908.823000", "173908.826000", "173908.829000", "173908.832000", "173908.835000", "173908.838000", "173908.841000", "173908.844000", "173908.847000", "173908.850000", "173908.853000", "173908.856000", "173908.859000", "173908.862000", "173908.865000", "173908.868000", "173908.871000", "173908.874000", "173908.877000", "173948.819000", "173948.822000", "173948.826000", "173948.828000", "173948.832000", "173948.835000", "173948.837000", "173948.840000", "173948.843000", "173948.846000", "173948.850000", "173948.853000", "173948.856000", "173948.859000", "173948.862000", "173948.864000", "173948.867000", "173948.870000", "173948.873000", "173948.875000", "173948.878000", "174008.839000", "174008.842000", "174008.845000", "174008.848000", "174008.851000", "174008.854000", "174008.857000", "174008.861000", "174008.864000", "174008.870000"],
      "InstanceNumber": [1, 2, 3, 4, 5, 6, 7, 8, 9, 10, 11, 12, 13, 14, 15, 16, 17, 18, 19, 20, 21, 22, 23, 24, 25, 26, 27, 28, 29, 30, 31, 32, 33, 34, 35, 36, 37, 38, 39, 40, 41, 42, 43, 44, 45, 46, 47, 48, 49, 50, 51, 52, 53, 54, 55, 56, 57, 58, 59, 60, 61, 62, 63, 64, 65, 66, 67, 68, 69, 70, 71, 72, 73, 74, 75, 76, 77, 78, 79, 80, 81, 82, 83, 84, 85, 86, 87, 88, 89, 90, 91, 92, 93, 94, 95, 96, 97, 98, 99, 100, 101, 102, 103, 104, 105, 106, 107, 108, 109, 110, 111, 112, 113, 114, 115, 116, 117, 118, 119, 120, 121, 122, 123, 124, 125, 126, 127, 128, 129, 130, 131, 132, 133, 134, 135, 136, 137, 138, 139, 140, 141, 142, 143, 144, 145, 146, 147, 148, 149, 150, 151, 152, 153, 154, 155],
      "LargestImagePixelValue": [950, 929, 931, 924, 921, 925, 917, 920, 918, 901, 894, 897, 898, 903, 915, 912, 912, 913, 913, 907, 903, 894, 889, 892, 900, 897, 899, 890, 886, 885, 891, 895, 895, 902, 894, 892, 894, 888, 891, 887, 894, 887, 887, 889, 886, 887, 887, 883, 886, 884, 886, 885, 887, 892, 890, 891, 890, 892, 883, 886, 884, 886, 920, 890, 910, 909, 905, 900, 896, 890, 890, 881, 881, 880, 880, 887, 887, 884, 885, 887, 890, 885, 886, 883, 885, 891, 887, 891, 889, 895, 894, 892, 893, 891, 892, 889, 888, 883, 876, 888, 885, 886, 883, 881, 876, 877, 882, 882, 884, 884, 888, 888, 888, 885, 885, 887, 886, 885, 882, 884, 891, 891, 892, 881, 887, 881, 884, 888, 885, 888, 885, 885, 886, 885, 887, 886, 886, 882, 887, 890, 890, 891, 890, 896, 892, 891, 888, 884, 883, 887, 884, 885, 890, 892, 891],
      "WindowCenter": [477.0, 475.0, 477.0, 476.0, 476.0, 476.0, 476.0, 481.0, 480.0, 479.0, 479.0, 477.0, 476.0, 474.0, 474.0, 474.0, 473.0, 473.0, 473.0, 475.0, 476.0, 477.0, 477.0, 478.0, 478.0, 478.0, 478.0, 479.0, 478.0, 477.0, 477.0, 477.0, 476.0, 476.0, 476.0, 477.0, 477.0, 477.0, 478.0, 478.0, 478.0, 478.0, 479.0, 479.0, 479.0, 479.0, 479.0, 479.0, 479.0, 479.0, 479.0, 479.0, 478.0, 479.0, 479.0, 479.0, 479.0, 481.0, 480.0, 479.0, 477.0, 474.0, 472.0, 468.0, 468.0, 468.0, 469.0, 471.0, 473.0, 475.0, 476.0, 476.0, 477.0, 477.0, 477.0, 478.0, 478.0, 478.0, 478.0, 479.0, 479.0, 479.0, 479.0, 480.0, 480.0, 480.0, 480.0, 479.0, 479.0, 478.0, 478.0, 478.0, 478.0, 479.0, 479.0, 479.0, 478.0, 478.0, 478.0, 478.0, 477.0, 476.0, 476.0, 477.0, 476.0, 476.0, 477.0, 477.0, 477.0, 478.0, 478.0, 478.0, 478.0, 477.0, 478.0, 478.0, 478.0, 478.0, 478.0, 478.0, 478.0, 478.0, 479.0, 478.0, 476.0, 474.0, 474.0, 474.0, 475.0, 475.0, 476.0, 476.0, 477.0, 477.0, 477.0, 477.0, 477.0, 477.0, 478.0, 478.0, 478.0, 478.0, 478.0, 477.0, 477.0, 476.0, 476.0, 476.0, 476.0, 475.0, 475.0, 475.0, 476.0, 476.0, 476.0],
      "WindowWidth": [993.0, 991.0, 993.0, 993.0, 992.0, 992.0, 992.0, 1002.0, 999.0, 998.0, 997.0, 995.0, 992.0, 988.0, 987.0, 987.0, 987.0, 986.0, 987.0, 989.0, 992.0, 994.0, 993.0, 995.0, 995.0, 996.0, 996.0, 997.0, 996.0, 995.0, 994.0, 994.0, 993.0, 992.0, 992.0, 993.0, 994.0, 994.0, 995.0, 995.0, 996.0, 996.0, 998.0, 997.0, 998.0, 998.0, 998.0, 998.0, 998.0, 999.0, 998.0, 997.0, 997.0, 997.0, 997.0, 997.0, 997.0, 1001.0, 1000.0, 998.0, 994.0, 989.0, 984.0, 977.0, 975.0, 976.0, 978.0, 981.0, 986.0, 989.0, 991.0, 993.0, 994.0, 994.0, 994.0, 995.0, 996.0, 997.0, 996.0, 997.0, 998.0, 998.0, 999.0, 1000.0, 1000.0, 999.0, 999.0, 998.0, 997.0, 997.0, 997.0, 996.0, 995.0, 997.0, 997.0, 997.0, 996.0, 996.0, 996.0, 996.0, 994.0, 993.0, 993.0, 993.0, 993.0, 992.0, 994.0, 993.0, 994.0, 995.0, 995.0, 995.0, 995.0, 995.0, 995.0, 995.0, 995.0, 996.0, 995.0, 995.0, 995.0, 996.0, 998.0, 995.0, 991.0, 989.0, 987.0, 988.0, 989.0, 990.0, 991.0, 993.0, 994.0, 994.0, 994.0, 994.0, 994.0, 994.0, 995.0, 995.0, 995.0, 995.0, 995.0, 994.0, 993.0, 992.0, 993.0, 993.0, 992.0, 991.0, 990.0, 990.0, 991.0, 991.0, 991.0]
    },
    "slices": {}
  }
}