{
  "AcquisitionMatrixPE": 64,
  "AcquisitionNumber": 1,
  "AcquisitionTime": "20:36:29.042500",
  "BandwidthPerPixelPhaseEncode": 40.064,
  "BaseResolution": 64,
  "BodyPartExamined": "BRAIN",
  "ConsistencyInfo": "N4_VD13D_LATEST_20130810",
  "ConversionSoftware": "dcm2niix",
  "ConversionSoftwareVersion": "v1.0.20191031",
  "DerivedVendorReportedEchoSpacing": 0.000780002,
  "DeviceSerialNumber": "67007",
  "DwellTime": 5.3e-06,
  "EchoTime": 0.03,
  "EchoTrainLength": 31,
  "EffectiveEchoSpacing": 0.000390001,
  "FlipAngle": 75,
  "ImageOrientationPatientDICOM": [0.999133, 0.0414006, 0.00450159, -0.0401293, 0.98603, -0.161662],
  "ImageType": [
    "ORIGINAL",
    "PRIMARY",
    "M",
    "ND",
    "NORM",
    "MOSAIC"
],
  "ImagingFrequency": 123.211,
  "InPlanePhaseEncodingDirectionDICOM": "ROW",
  "InstitutionAddress": "Perth_Drive_100_London_Ontario_CA_N6A_5K8",
  "InstitutionName": "Robarts_Research_Institute",
  "InstitutionalDepartmentName": "CFMM",
  "MRAcquisitionType": "2D",
  "MagneticFieldStrength": 3,
  "Manufacturer": "Siemens",
  "ManufacturersModelName": "Prisma_fit",
  "Modality": "MR",
  "ParallelReductionFactorInPlane": 2,
  "PartialFourier": 1,
  "PatientPosition": "HFS",
  "PercentPhaseFOV": 100,
  "PhaseEncodingDirection": "i",
  "PhaseEncodingSteps": 63,
  "PhaseResolution": 1,
  "PixelBandwidth": 1475,
  "ProcedureStepDescription": "Owen_Naci",
  "ProtocolName": "Resting_State_recovery",
  "PulseSequenceDetails": "%SiemensSeq%_ep2d_bold",
  "ReceiveCoilActiveElements": "HEA;HEP",
  "ReceiveCoilName": "Head_32",
  "ReconMatrixPE": 64,
  "RefLinesPE": 24,
  "RepetitionTime": 2,
  "SAR": 0.121103,
  "ScanOptions": "FS",
  "ScanningSequence": "EP",
  "SequenceName": "_epfid2d1_64",
  "SequenceVariant": "SK",
  "SeriesDescription": "Resting_State_recovery",
  "SeriesNumber": 22,
  "ShimSetting": [5262, -6210, -3765, 402, 28, -118, 122, -6],
  "SliceThickness": 3,
  "SliceTiming": [1.92, 1.86, 1.8, 1.74, 1.68, 1.62, 1.56, 1.5, 1.44, 1.38, 1.32, 1.26, 1.2, 1.14, 1.08, 1.02, 0.96, 0.9, 0.84, 0.78, 0.72, 0.66, 0.6, 0.54, 0.48, 0.42, 0.36, 0.3, 0.24, 0.18, 0.12, 0.06, 0],
  "SoftwareVersions": "syngo_MR_D13D",
  "SpacingBetweenSlices": 3.75,
  "StationName": "AWP67007",
  "TaskName": "restrecovery",
  "TotalReadoutTime": 0.0245701,
  "TxRefAmp": 322.304,
  "dcmmeta_affine": [
    [-2.9973974227905273, -0.12038791924715042, 0.04174353927373886, 101.47430419921875],
    [-0.12420179694890976, 2.958089828491211, -0.605029284954071, -64.37215423583984],
    [0.01350477896630764, 0.4849861264228821, 3.700634479522705, -41.04717254638672],
    [0.0, 0.0, 0.0, 1.0]
],
  "dcmmeta_reorient_transform": [
    [0.0, -1.0, 0.0, 63.0],
    [1.0, 0.0, 0.0, 0.0],
    [0.0, 0.0, 1.0, 0.0],
    [0.0, 0.0, 0.0, 1.0]
],
  "dcmmeta_shape": [64, 64, 33, 256],
  "dcmmeta_slice_dim": 2,
  "dcmmeta_version": 0.6,
  "global": {
    "const": {
      "AcquisitionMatrix": [0, 64, 64, 0],
      "AngioFlag": "N",
      "BitsAllocated": 16,
      "BitsStored": 12,
      "BodyPartExamined": "BRAIN",
      "Columns": 384,
      "EchoNumbers": 1,
      "EchoTime": 30.0,
      "EchoTrainLength": 31,
      "FlipAngle": 75.0,
      "HighBit": 11,
      "ImageOrientationPatient": [0.99913248669789, 0.04140060004933, 0.0045015931021, -0.0401293067298, 0.9860299298234, -0.1616620432688],
      "ImagePositionPatient": [-554.21138984718, -615.15415314492, 64.943971145387],
      "ImageType": [
        "ORIGINAL",
        "PRIMARY",
        "M",
        "ND",
        "NORM",
        "MOSAIC"
],
      "ImagedNucleus": "1H",
      "ImagingFrequency": 123.211203,
      "InPlanePhaseEncodingDirection": "ROW",
      "MRAcquisitionType": "2D",
      "MagneticFieldStrength": 3.0,
      "Manufacturer": "SIEMENS",
      "ManufacturerModelName": "Prisma_fit",
      "Modality": "MR",
      "NumberOfAverages": 1.0,
      "NumberOfPhaseEncodingSteps": 63,
      "PercentPhaseFieldOfView": 100.0,
      "PercentSampling": 100.0,
      "PerformedProcedureStepStartTime": "183209.631000",
      "PhotometricInterpretation": "MONOCHROME2",
      "PixelBandwidth": 1475.0,
      "PixelRepresentation": 0,
      "PixelSpacing": [3.0, 3.0],
      "ProtocolName": "Resting State_recovery",
      "RepetitionTime": 2000.0,
      "Rows": 384,
      "SAR": 0.12110299955505,
      "SamplesPerPixel": 1,
      "ScanOptions": "FS",
      "ScanningSequence": "EP",
      "SequenceName": "*epfid2d1_64",
      "SequenceVariant": "SK",
      "SeriesDescription": "Resting State_recovery",
      "SeriesNumber": 22,
      "SeriesTime": "203715.395000",
      "SliceLocation": -28.991371898816,
      "SliceThickness": 3.0,
      "SmallestImagePixelValue": 0,
      "SoftwareVersions": "syngo MR D13D",
      "SpacingBetweenSlices": 3.7499999177386,
      "SpecificCharacterSet": "ISO_IR 100",
      "StudyID": "1",
      "StudyTime": "183209.576000",
      "TimeOfLastCalibration": ["123723.000000", "123723.000000"],
      "TransmitCoilName": "Body",
      "VariableFlipAngleFlag": "N",
      "WindowCenterWidthExplanation": "Algo1",
      "dBdt": 0.0},
    "slices": {}
  },
  "time": {
    "samples": {
      "AcquisitionNumber": [1, 2, 3, 4, 5, 6, 7, 8, 9, 10, 11, 12, 13, 14, 15, 16, 17, 18, 19, 20, 21, 22, 23, 24, 25, 26, 27, 28, 29, 30, 31, 32, 33, 34, 35, 36, 37, 38, 39, 40, 41, 42, 43, 44, 45, 46, 47, 48, 49, 50, 51, 52, 53, 54, 55, 56, 57, 58, 59, 60, 61, 62, 63, 64, 65, 66, 67, 68, 69, 70, 71, 72, 73, 74, 75, 76, 77, 78, 79, 80, 81, 82, 83, 84, 85, 86, 87, 88, 89, 90, 91, 92, 93, 94, 95, 96, 97, 98, 99, 100, 101, 102, 103, 104, 105, 106, 107, 108, 109, 110, 111, 112, 113, 114, 115, 116, 117, 118, 119, 120, 121, 122, 123, 124, 125, 126, 127, 128, 129, 130, 131, 132, 133, 134, 135, 136, 137, 138, 139, 140, 141, 142, 143, 144, 145, 146, 147, 148, 149, 150, 151, 152, 153, 154, 155, 156, 157, 158, 159, 160, 161, 162, 163, 164, 165, 166, 167, 168, 169, 170, 171, 172, 173, 174, 175, 176, 177, 178, 179, 180, 181, 182, 183, 184, 185, 186, 187, 188, 189, 190, 191, 192, 193, 194, 195, 196, 197, 198, 199, 200, 201, 202, 203, 204, 205, 206, 207, 208, 209, 210, 211, 212, 213, 214, 215, 216, 217, 218, 219, 220, 221, 222, 223, 224, 225, 226, 227, 228, 229, 230, 231, 232, 233, 234, 235, 236, 237, 238, 239, 240, 241, 242, 243, 244, 245, 246, 247, 248, 249, 250, 251, 252, 253, 254, 255, 256],
      "AcquisitionTime": ["203629.042500", "203631.042500", "203633.042500", "203635.042500", "203637.042500", "203639.042500", "203641.042500", "203643.042500", "203645.042500", "203647.042500", "203649.042500", "203651.042500", "203653.042500", "203655.042500", "203657.042500", "203659.042500", "203701.042500", "203703.042500", "203705.042500", "203707.042500", "203709.042500", "203711.042500", "203713.042500", "203715.042500", "203717.042500", "203719.042500", "203721.042500", "203723.042500", "203725.042500", "203727.042500", "203729.042500", "203731.042500", "203733.042500", "203735.042500", "203737.042500", "203739.042500", "203741.042500", "203743.042500", "203745.042500", "203747.042500", "203749.042500", "203751.042500", "203753.042500", "203755.042500", "203757.042500", "203759.042500", "203801.042500", "203803.042500", "203805.042500", "203807.042500", "203809.042500", "203811.042500", "203813.042500", "203815.042500", "203817.042500", "203819.042500", "203821.042500", "203823.042500", "203825.042500", "203827.042500", "203829.042500", "203831.042500", "203833.042500", "203835.042500", "203837.042500", "203839.042500", "203841.042500", "203843.042500", "203845.042500", "203847.042500", "203849.042500", "203851.042500", "203853.042500", "203855.042500", "203857.042500", "203859.042500", "203901.042500", "203903.042500", "203905.042500", "203907.042500", "203909.042500", "203911.042500", "203913.042500", "203915.042500", "203917.042500", "203919.042500", "203921.042500", "203923.042500", "203925.042500", "203927.042500", "203929.042500", "203931.042500", "203933.042500", "203935.042500", "203937.042500", "203939.042500", "203941.042500", "203943.042500", "203945.042500", "203947.042500", "203949.042500", "203951.042500", "203953.042500", "203955.042500", "203957.042500", "203959.042500", "204001.042500", "204003.042500", "204005.042500", "204007.042500", "204009.042500", "204011.042500", "204013.042500", "204015.042500", "204017.042500", "204019.042500", "204021.042500", "204023.042500", "204025.042500", "204027.042500", "204029.042500", "204031.042500", "204033.042500", "204035.042500", "204037.042500", "204039.042500", "204041.042500", "204043.042500", "204045.042500", "204047.042500", "204049.042500", "204051.042500", "204053.042500", "204055.042500", "204057.042500", "204059.042500", "204101.042500", "204103.042500", "204105.042500", "204107.042500", "204109.042500", "204111.042500", "204113.042500", "204115.042500", "204117.042500", "204119.042500", "204121.042500", "204123.042500", "204125.042500", "204127.042500", "204129.042500", "204131.042500", "204133.042500", "204135.042500", "204137.042500", "204139.042500", "204141.042500", "204143.042500", "204145.042500", "204147.042500", "204149.042500", "204151.042500", "204153.042500", "204155.042500", "204157.042500", "204159.042500", "204201.042500", "204203.042500", "204205.042500", "204207.042500", "204209.042500", "204211.042500", "204213.042500", "204215.042500", "204217.042500", "204219.042500", "204221.042500", "204223.042500", "204225.042500", "204227.042500", "204229.042500", "204231.042500", "204233.042500", "204235.042500", "204237.042500", "204239.042500", "204241.042500", "204243.042500", "204245.042500", "204247.042500", "204249.042500", "204251.042500", "204253.042500", "204255.042500", "204257.042500", "204259.042500", "204301.042500", "204303.042500", "204305.042500", "204307.042500", "204309.042500", "204311.042500", "204313.042500", "204315.042500", "204317.042500", "204319.042500", "204321.042500", "204323.042500", "204325.042500", "204327.042500", "204329.042500", "204331.042500", "204333.042500", "204335.042500", "204337.042500", "204339.042500", "204341.042500", "204343.042500", "204345.042500", "204347.042500", "204349.042500", "204351.042500", "204353.042500", "204355.042500", "204357.042500", "204359.042500", "204401.042500", "204403.042500", "204405.042500", "204407.042500", "204409.042500", "204411.042500", "204413.042500", "204415.042500", "204417.042500", "204419.042500", "204421.042500", "204423.042500", "204425.042500", "204427.042500", "204429.042500", "204431.042500", "204433.042500", "204435.042500", "204437.042500", "204439.042500", "204441.042500", "204443.042500", "204445.042500", "204447.045000", "204449.045000", "204451.045000", "204453.045000", "204455.045000", "204457.045000", "204459.045000"],
      "ContentTime": ["203715.400000", "203715.403000", "203715.412000", "203715.415000", "203715.418000", "203715.420000", "203715.423000", "203715.426000", "203715.428000", "203715.431000", "203715.434000", "203715.437000", "203715.440000", "203715.442000", "203715.445000", "203715.448000", "203715.451000", "203715.454000", "203715.456000", "203715.459000", "203715.475000", "203715.478000", "203715.481000", "203755.395000", "203755.398000", "203755.408000", "203755.410000", "203755.413000", "203755.416000", "203755.419000", "203755.422000", "203755.424000", "203755.427000", "203755.430000", "203755.433000", "203755.436000", "203755.439000", "203755.441000", "203755.444000", "203755.447000", "203755.449000", "203755.452000", "203755.455000", "203835.395000", "203835.398000", "203835.401000", "203835.404000", "203835.406000", "203835.409000", "203835.412000", "203835.415000", "203835.418000", "203835.420000", "203835.423000", "203835.426000", "203835.429000", "203835.432000", "203835.435000", "203835.437000", "203835.440000", "203835.443000", "203835.446000", "203835.448000", "203915.395000", "203915.398000", "203915.401000", "203915.404000", "203915.406000", "203915.409000", "203915.412000", "203915.414000", "203915.417000", "203915.420000", "203915.423000", "203915.426000", "203915.439000", "203915.442000", "203915.444000", "203915.447000", "203915.450000", "203915.452000", "203915.455000", "203915.458000", "203955.395000", "203955.398000", "203955.401000", "203955.404000", "203955.407000", "203955.410000", "203955.412000", "203955.415000", "203955.418000", "203955.421000", "203955.423000", "203955.426000", "203955.429000", "203955.439000", "203955.441000", "203955.444000", "203955.447000", "203955.450000", "203955.452000", "203955.455000", "204035.395000", "204035.398000", "204035.401000", "204035.404000", "204035.406000", "204035.409000", "204035.412000", "204035.415000", "204035.418000", "204035.420000", "204035.423000", "204035.426000", "204035.429000", "204035.432000", "204035.435000", "204035.438000", "204035.440000", "204035.443000", "204035.446000", "204035.448000", "204115.395000", "204115.399000", "204115.401000", "204115.404000", "204115.407000", "204115.410000", "204115.413000", "204115.416000", "204115.419000", "204115.421000", "204115.424000", "204115.427000", "204115.430000", "204115.433000", "204115.436000", "204115.439000", "204115.441000", "204115.444000", "204115.447000", "204115.449000", "204155.395000", "204155.398000", "204155.401000", "204155.404000", "204155.406000", "204155.409000", "204155.412000", "204155.414000", "204155.418000", "204155.420000", "204155.423000", "204155.426000", "204155.429000", "204155.432000", "204155.435000", "204155.438000", "204155.441000", "204155.443000", "204155.446000", "204155.449000", "204235.395000", "204235.398000", "204235.401000", "204235.404000", "204235.406000", "204235.409000", "204235.412000", "204235.414000", "204235.417000", "204235.420000", "204235.423000", "204235.425000", "204235.428000", "204235.431000", "204235.434000", "204235.436000", "204235.439000", "204235.442000", "204235.445000", "204235.448000", "204315.395000", "204315.399000", "204315.401000", "204315.404000", "204315.412000", "204315.415000", "204315.417000", "204315.420000", "204315.423000", "204315.426000", "204315.429000", "204315.432000", "204315.435000", "204315.438000", "204315.441000", "204315.443000", "204315.446000", "204315.449000", "204315.451000", "204315.454000", "204355.395000", "204355.398000", "204355.401000", "204355.404000", "204355.406000", "204355.409000", "204355.413000", "204355.416000", "204355.419000", "204355.421000", "204355.424000", "204355.427000", "204355.430000", "204355.433000", "204355.436000", "204355.439000", "204355.441000", "204355.444000", "204355.447000", "204355.450000", "204435.395000", "204435.398000", "204435.401000", "204435.404000", "204435.407000", "204435.410000", "204435.412000", "204435.415000", "204435.418000", "204435.421000", "204435.424000", "204435.427000", "204435.429000", "204435.432000", "204435.435000", "204435.438000", "204435.441000", "204435.444000", "204435.446000", "204435.449000", "204459.796000", "204459.799000", "204459.803000", "204459.806000", "204459.808000", "204459.811000", "204459.814000", "204459.818000", "204459.821000", "204459.824000", "204459.827000", "204459.831000", "204459.835000"],
      "InstanceCreationTime": ["203715.400000", "203715.403000", "203715.412000", "203715.415000", "203715.418000", "203715.420000", "203715.423000", "203715.426000", "203715.428000", "203715.431000", "203715.434000", "203715.437000", "203715.440000", "203715.442000", "203715.445000", "203715.448000", "203715.451000", "203715.454000", "203715.456000", "203715.459000", "203715.475000", "203715.478000", "203715.481000", "203755.395000", "203755.398000", "203755.408000", "203755.410000", "203755.413000", "203755.416000", "203755.419000", "203755.422000", "203755.424000", "203755.427000", "203755.430000", "203755.433000", "203755.436000", "203755.439000", "203755.441000", "203755.444000", "203755.447000", "203755.449000", "203755.452000", "203755.455000", "203835.395000", "203835.398000", "203835.401000", "203835.404000", "203835.406000", "203835.409000", "203835.412000", "203835.415000", "203835.418000", "203835.420000", "203835.423000", "203835.426000", "203835.429000", "203835.432000", "203835.435000", "203835.437000", "203835.440000", "203835.443000", "203835.446000", "203835.448000", "203915.395000", "203915.398000", "203915.401000", "203915.404000", "203915.406000", "203915.409000", "203915.412000", "203915.414000", "203915.417000", "203915.420000", "203915.423000", "203915.426000", "203915.439000", "203915.442000", "203915.444000", "203915.447000", "203915.450000", "203915.452000", "203915.455000", "203915.458000", "203955.395000", "203955.398000", "203955.401000", "203955.404000", "203955.407000", "203955.410000", "203955.412000", "203955.415000", "203955.418000", "203955.421000", "203955.423000", "203955.426000", "203955.429000", "203955.439000", "203955.441000", "203955.444000", "203955.447000", "203955.450000", "203955.452000", "203955.455000", "204035.395000", "204035.398000", "204035.401000", "204035.404000", "204035.406000", "204035.409000", "204035.412000", "204035.415000", "204035.418000", "204035.420000", "204035.423000", "204035.426000", "204035.429000", "204035.432000", "204035.435000", "204035.438000", "204035.440000", "204035.443000", "204035.446000", "204035.448000", "204115.395000", "204115.399000", "204115.401000", "204115.404000", "204115.407000", "204115.410000", "204115.413000", "204115.416000", "204115.419000", "204115.421000", "204115.424000", "204115.427000", "204115.430000", "204115.433000", "204115.436000", "204115.439000", "204115.441000", "204115.444000", "204115.447000", "204115.449000", "204155.395000", "204155.398000", "204155.401000", "204155.404000", "204155.406000", "204155.409000", "204155.412000", "204155.414000", "204155.418000", "204155.420000", "204155.423000", "204155.426000", "204155.429000", "204155.432000", "204155.435000", "204155.438000", "204155.441000", "204155.443000", "204155.446000", "204155.449000", "204235.395000", "204235.398000", "204235.401000", "204235.404000", "204235.406000", "204235.409000", "204235.412000", "204235.414000", "204235.417000", "204235.420000", "204235.423000", "204235.425000", "204235.428000", "204235.431000", "204235.434000", "204235.436000", "204235.439000", "204235.442000", "204235.445000", "204235.448000", "204315.395000", "204315.399000", "204315.401000", "204315.404000", "204315.412000", "204315.415000", "204315.417000", "204315.420000", "204315.423000", "204315.426000", "204315.429000", "204315.432000", "204315.435000", "204315.438000", "204315.441000", "204315.443000", "204315.446000", "204315.449000", "204315.451000", "204315.454000", "204355.395000", "204355.398000", "204355.401000", "204355.404000", "204355.406000", "204355.409000", "204355.413000", "204355.416000", "204355.419000", "204355.421000", "204355.424000", "204355.427000", "204355.430000", "204355.433000", "204355.436000", "204355.439000", "204355.441000", "204355.444000", "204355.447000", "204355.450000", "204435.395000", "204435.398000", "204435.401000", "204435.404000", "204435.407000", "204435.410000", "204435.412000", "204435.415000", "204435.418000", "204435.421000", "204435.424000", "204435.427000", "204435.429000", "204435.432000", "204435.435000", "204435.438000", "204435.441000", "204435.444000", "204435.446000", "204435.449000", "204459.796000", "204459.799000", "204459.803000", "204459.806000", "204459.808000", "204459.811000", "204459.814000", "204459.818000", "204459.821000", "204459.824000", "204459.827000", "204459.831000", "204459.835000"],
      "InstanceNumber": [1, 2, 3, 4, 5, 6, 7, 8, 9, 10, 11, 12, 13, 14, 15, 16, 17, 18, 19, 20, 21, 22, 23, 24, 25, 26, 27, 28, 29, 30, 31, 32, 33, 34, 35, 36, 37, 38, 39, 40, 41, 42, 43, 44, 45, 46, 47, 48, 49, 50, 51, 52, 53, 54, 55, 56, 57, 58, 59, 60, 61, 62, 63, 64, 65, 66, 67, 68, 69, 70, 71, 72, 73, 74, 75, 76, 77, 78, 79, 80, 81, 82, 83, 84, 85, 86, 87, 88, 89, 90, 91, 92, 93, 94, 95, 96, 97, 98, 99, 100, 101, 102, 103, 104, 105, 106, 107, 108, 109, 110, 111, 112, 113, 114, 115, 116, 117, 118, 119, 120, 121, 122, 123, 124, 125, 126, 127, 128, 129, 130, 131, 132, 133, 134, 135, 136, 137, 138, 139, 140, 141, 142, 143, 144, 145, 146, 147, 148, 149, 150, 151, 152, 153, 154, 155, 156, 157, 158, 159, 160, 161, 162, 163, 164, 165, 166, 167, 168, 169, 170, 171, 172, 173, 174, 175, 176, 177, 178, 179, 180, 181, 182, 183, 184, 185, 186, 187, 188, 189, 190, 191, 192, 193, 194, 195, 196, 197, 198, 199, 200, 201, 202, 203, 204, 205, 206, 207, 208, 209, 210, 211, 212, 213, 214, 215, 216, 217, 218, 219, 220, 221, 222, 223, 224, 225, 226, 227, 228, 229, 230, 231, 232, 233, 234, 235, 236, 237, 238, 239, 240, 241, 242, 243, 244, 245, 246, 247, 248, 249, 250, 251, 252, 253, 254, 255, 256],
      "LargestImagePixelValue": [952, 1271, 1004, 842, 833, 892, 888, 824, 818, 827, 903, 1094, 823, 1095, 951, 825, 901, 874, 822, 828, 940, 872, 832, 876, 1042, 821, 919, 852, 825, 827, 818, 998, 940, 852, 970, 948, 834, 839, 886, 821, 842, 826, 820, 825, 815, 992, 882, 863, 825, 817, 861, 815, 1012, 1050, 923, 972, 823, 823, 906, 824, 887, 1076, 817, 852, 859, 1234, 930, 822, 922, 870, 824, 823, 821, 1077, 849, 833, 829, 830, 829, 827, 887, 824, 869, 830, 820, 829, 822, 817, 902, 861, 827, 828, 849, 824, 1020, 821, 851, 1001, 824, 945, 973, 823, 838, 872, 832, 832, 835, 1002, 830, 897, 1077, 830, 827, 828, 840, 1160, 841, 912, 834, 822, 1075, 1187, 823, 834, 859, 835, 838, 819, 823, 914, 822, 818, 925, 819, 979, 1261, 882, 971, 844, 886, 920, 831, 887, 1259, 821, 829, 826, 925, 1119, 853, 854, 825, 913, 817, 1036, 851, 853, 851, 827, 1066, 896, 1014, 938, 843, 821, 971, 845, 853, 843, 975, 826, 907, 897, 980, 1085, 827, 886, 956, 874, 870, 910, 858, 821, 877, 823, 839, 1003, 839, 899, 938, 823, 1072, 926, 846, 1037, 866, 983, 874, 848, 832, 887, 978, 1205, 929, 890, 873, 869, 825, 884, 1087, 1102, 860, 1072, 871, 868, 853, 1091, 862, 865, 803, 1154, 1208, 880, 888, 889, 979, 862, 841, 831, 856, 881, 820, 1147, 829, 832, 866, 857, 941, 848, 1006, 1058, 929, 844, 861, 1048, 1063, 894, 869, 913, 1157, 844, 805, 823, 1106, 871, 843],
      "WindowCenter": [481.0, 486.0, 480.0, 477.0, 478.0, 478.0, 477.0, 476.0, 476.0, 478.0, 479.0, 481.0, 477.0, 480.0, 479.0, 476.0, 478.0, 478.0, 477.0, 477.0, 478.0, 477.0, 476.0, 477.0, 479.0, 477.0, 478.0, 478.0, 477.0, 478.0, 478.0, 479.0, 478.0, 478.0, 478.0, 477.0, 475.0, 475.0, 477.0, 476.0, 475.0, 476.0, 475.0, 476.0, 476.0, 478.0, 477.0, 478.0, 478.0, 478.0, 479.0, 479.0, 481.0, 482.0, 480.0, 480.0, 478.0, 477.0, 479.0, 479.0, 479.0, 481.0, 477.0, 477.0, 479.0, 482.0, 480.0, 477.0, 478.0, 477.0, 475.0, 475.0, 476.0, 478.0, 476.0, 476.0, 476.0, 476.0, 477.0, 477.0, 478.0, 477.0, 478.0, 478.0, 476.0, 476.0, 477.0, 477.0, 478.0, 477.0, 476.0, 477.0, 478.0, 477.0, 478.0, 476.0, 476.0, 479.0, 477.0, 478.0, 478.0, 476.0, 477.0, 477.0, 477.0, 477.0, 477.0, 478.0, 476.0, 477.0, 480.0, 477.0, 477.0, 477.0, 479.0, 482.0, 479.0, 481.0, 477.0, 476.0, 478.0, 479.0, 474.0, 475.0, 476.0, 477.0, 478.0, 478.0, 478.0, 479.0, 478.0, 478.0, 480.0, 478.0, 479.0, 482.0, 478.0, 478.0, 476.0, 477.0, 478.0, 478.0, 478.0, 481.0, 475.0, 475.0, 475.0, 477.0, 479.0, 476.0, 476.0, 475.0, 476.0, 475.0, 477.0, 476.0, 476.0, 477.0, 477.0, 480.0, 478.0, 481.0, 478.0, 476.0, 476.0, 479.0, 477.0, 478.0, 477.0, 479.0, 476.0, 477.0, 477.0, 479.0, 481.0, 477.0, 478.0, 480.0, 478.0, 479.0, 479.0, 478.0, 476.0, 477.0, 476.0, 477.0, 480.0, 478.0, 478.0, 478.0, 476.0, 480.0, 478.0, 476.0, 479.0, 477.0, 479.0, 478.0, 478.0, 477.0, 478.0, 478.0, 480.0, 477.0, 477.0, 477.0, 477.0, 477.0, 478.0, 479.0, 479.0, 476.0, 479.0, 477.0, 476.0, 477.0, 480.0, 478.0, 476.0, 475.0, 479.0, 481.0, 476.0, 475.0, 476.0, 477.0, 479.0, 477.0, 477.0, 477.0, 477.0, 477.0, 480.0, 475.0, 475.0, 477.0, 478.0, 480.0, 479.0, 481.0, 482.0, 480.0, 479.0, 478.0, 480.0, 480.0, 478.0, 477.0, 478.0, 480.0, 477.0, 476.0, 475.0, 479.0, 477.0, 477.0],
      "WindowWidth": [1001.0, 1011.0, 1000.0, 995.0, 995.0, 996.0, 994.0, 991.0, 993.0, 996.0, 997.0, 1000.0, 994.0, 999.0, 996.0, 993.0, 995.0, 995.0, 994.0, 994.0, 995.0, 993.0, 992.0, 994.0, 998.0, 994.0, 996.0, 996.0, 994.0, 997.0, 997.0, 997.0, 996.0, 995.0, 995.0, 994.0, 990.0, 990.0, 994.0, 992.0, 991.0, 993.0, 991.0, 993.0, 992.0, 996.0, 995.0, 996.0, 996.0, 996.0, 998.0, 998.0, 1001.0, 1002.0, 999.0, 999.0, 995.0, 995.0, 998.0, 997.0, 998.0, 1000.0, 995.0, 995.0, 998.0, 1003.0, 1000.0, 995.0, 995.0, 994.0, 990.0, 991.0, 991.0, 995.0, 991.0, 991.0, 991.0, 992.0, 994.0, 993.0, 995.0, 994.0, 995.0, 995.0, 993.0, 993.0, 994.0, 994.0, 996.0, 994.0, 993.0, 995.0, 995.0, 993.0, 996.0, 992.0, 993.0, 997.0, 994.0, 996.0, 995.0, 993.0, 994.0, 995.0, 993.0, 994.0, 994.0, 996.0, 993.0, 994.0, 998.0, 994.0, 994.0, 993.0, 998.0, 1002.0, 998.0, 1000.0, 995.0, 992.0, 995.0, 997.0, 989.0, 990.0, 992.0, 994.0, 996.0, 996.0, 995.0, 997.0, 995.0, 996.0, 998.0, 996.0, 997.0, 1002.0, 995.0, 996.0, 993.0, 993.0, 995.0, 995.0, 995.0, 1000.0, 991.0, 991.0, 991.0, 993.0, 996.0, 991.0, 991.0, 990.0, 992.0, 990.0, 994.0, 991.0, 992.0, 994.0, 994.0, 998.0, 995.0, 999.0, 995.0, 993.0, 992.0, 996.0, 994.0, 995.0, 994.0, 996.0, 993.0, 994.0, 994.0, 996.0, 1000.0, 994.0, 995.0, 998.0, 996.0, 997.0, 997.0, 995.0, 992.0, 993.0, 992.0, 994.0, 998.0, 995.0, 996.0, 995.0, 993.0, 997.0, 995.0, 993.0, 996.0, 995.0, 997.0, 996.0, 995.0, 993.0, 995.0, 995.0, 998.0, 994.0, 993.0, 993.0, 994.0, 994.0, 995.0, 996.0, 996.0, 992.0, 997.0, 993.0, 992.0, 993.0, 998.0, 995.0, 992.0, 990.0, 996.0, 1000.0, 992.0, 990.0, 991.0, 994.0, 998.0, 993.0, 994.0, 994.0, 994.0, 994.0, 998.0, 990.0, 991.0, 993.0, 997.0, 999.0, 997.0, 1001.0, 1002.0, 999.0, 997.0, 996.0, 998.0, 998.0, 995.0, 994.0, 995.0, 998.0, 994.0, 992.0, 991.0, 997.0, 994.0, 993.0]
    },
    "slices": {}
  }
}