{
  "AcquisitionMatrixPE": 64,
  "AcquisitionNumber": 1,
  "AcquisitionTime": "19:22:25.592500",
  "BandwidthPerPixelPhaseEncode": 40.064,
  "BaseResolution": 64,
  "BodyPartExamined": "BRAIN",
  "ConsistencyInfo": "N4_VD13D_LATEST_20130810",
  "ConversionSoftware": "dcm2niix",
  "ConversionSoftwareVersion": "v1.0.20191031",
  "DerivedVendorReportedEchoSpacing": 0.000780002,
  "DeviceSerialNumber": "67007",
  "DwellTime": 5.3e-06,
  "EchoTime": 0.03,
  "EchoTrainLength": 31,
  "EffectiveEchoSpacing": 0.000390001,
  "FlipAngle": 75,
  "ImageOrientationPatientDICOM": [0.999133, 0.0414006, 0.00450159, -0.0401293, 0.98603, -0.161662],
  "ImageType": [
    "ORIGINAL",
    "PRIMARY",
    "M",
    "ND",
    "NORM",
    "MOSAIC"
],
  "ImagingFrequency": 123.211,
  "InPlanePhaseEncodingDirectionDICOM": "ROW",
  "InstitutionAddress": "Perth_Drive_100_London_Ontario_CA_N6A_5K8",
  "InstitutionName": "Robarts_Research_Institute",
  "InstitutionalDepartmentName": "CFMM",
  "MRAcquisitionType": "2D",
  "MagneticFieldStrength": 3,
  "Manufacturer": "Siemens",
  "ManufacturersModelName": "Prisma_fit",
  "Modality": "MR",
  "ParallelReductionFactorInPlane": 2,
  "PartialFourier": 1,
  "PatientPosition": "HFS",
  "PercentPhaseFOV": 100,
  "PhaseEncodingDirection": "i",
  "PhaseEncodingSteps": 63,
  "PhaseResolution": 1,
  "PixelBandwidth": 1475,
  "ProcedureStepDescription": "Owen_Naci",
  "ProtocolName": "taken_light_sed",
  "PulseSequenceDetails": "%SiemensSeq%_ep2d_bold",
  "ReceiveCoilActiveElements": "HEA;HEP",
  "ReceiveCoilName": "Head_32",
  "ReconMatrixPE": 64,
  "RefLinesPE": 24,
  "RepetitionTime": 2,
  "SAR": 0.120878,
  "ScanOptions": "FS",
  "ScanningSequence": "EP",
  "SequenceName": "_epfid2d1_64",
  "SequenceVariant": "SK",
  "SeriesDescription": "taken_light_sed",
  "SeriesNumber": 7,
  "ShimSetting": [5262, -6210, -3765, 402, 28, -118, 122, -6],
  "SliceThickness": 3,
  "SliceTiming": [1.92, 1.86, 1.8, 1.74, 1.68, 1.62, 1.56, 1.5, 1.44, 1.38, 1.32, 1.26, 1.2, 1.14, 1.08, 1.02, 0.96, 0.9, 0.84, 0.78, 0.72, 0.66, 0.6, 0.54, 0.48, 0.42, 0.36, 0.3, 0.24, 0.18, 0.12, 0.06, 0],
  "SoftwareVersions": "syngo_MR_D13D",
  "SpacingBetweenSlices": 3.75,
  "StationName": "AWP67007",
  "TaskName": "audiolight",
  "TotalReadoutTime": 0.0245701,
  "TxRefAmp": 322.304,
  "dcmmeta_affine": [
    [-2.9973974227905273, -0.12038791924715042, 0.04174353927373886, 101.47430419921875],
    [-0.12420179694890976, 2.958089828491211, -0.605029284954071, -64.37215423583984],
    [0.01350477896630764, 0.4849861264228821, 3.700634479522705, -41.04717254638672],
    [0.0, 0.0, 0.0, 1.0]
],
  "dcmmeta_reorient_transform": [
    [0.0, -1.0, 0.0, 63.0],
    [1.0, 0.0, 0.0, 0.0],
    [0.0, 0.0, 1.0, 0.0],
    [0.0, 0.0, 0.0, 1.0]
],
  "dcmmeta_shape": [64, 64, 33, 155],
  "dcmmeta_slice_dim": 2,
  "dcmmeta_version": 0.6,
  "global": {
    "const": {
      "AcquisitionMatrix": [0, 64, 64, 0],
      "AngioFlag": "N",
      "BitsAllocated": 16,
      "BitsStored": 12,
      "BodyPartExamined": "BRAIN",
      "Columns": 384,
      "EchoNumbers": 1,
      "EchoTime": 30.0,
      "EchoTrainLength": 31,
      "FlipAngle": 75.0,
      "HighBit": 11,
      "ImageOrientationPatient": [0.99913248669789, 0.04140060004933, 0.0045015931021, -0.0401293067298, 0.9860299298234, -0.1616620432688],
      "ImagePositionPatient": [-554.21138984718, -615.15415314492, 64.943971145387],
      "ImageType": [
        "ORIGINAL",
        "PRIMARY",
        "M",
        "ND",
        "NORM",
        "MOSAIC"
],
      "ImagedNucleus": "1H",
      "ImagingFrequency": 123.211189,
      "InPlanePhaseEncodingDirection": "ROW",
      "MRAcquisitionType": "2D",
      "MagneticFieldStrength": 3.0,
      "Manufacturer": "SIEMENS",
      "ManufacturerModelName": "Prisma_fit",
      "Modality": "MR",
      "NumberOfAverages": 1.0,
      "NumberOfPhaseEncodingSteps": 63,
      "PercentPhaseFieldOfView": 100.0,
      "PercentSampling": 100.0,
      "PerformedProcedureStepStartTime": "183209.631000",
      "PhotometricInterpretation": "MONOCHROME2",
      "PixelBandwidth": 1475.0,
      "PixelRepresentation": 0,
      "PixelSpacing": [3.0, 3.0],
      "ProtocolName": "taken_light sed",
      "RepetitionTime": 2000.0,
      "Rows": 384,
      "SAR": 0.12087839923134,
      "SamplesPerPixel": 1,
      "ScanOptions": "FS",
      "ScanningSequence": "EP",
      "SequenceName": "*epfid2d1_64",
      "SequenceVariant": "SK",
      "SeriesDescription": "taken_light sed",
      "SeriesNumber": 7,
      "SeriesTime": "192235.397000",
      "SliceLocation": -28.991371898816,
      "SliceThickness": 3.0,
      "SmallestImagePixelValue": 0,
      "SoftwareVersions": "syngo MR D13D",
      "SpacingBetweenSlices": 3.7499999177386,
      "SpecificCharacterSet": "ISO_IR 100",
      "StudyID": "1",
      "StudyTime": "183209.576000",
      "TimeOfLastCalibration": ["123723.000000", "123723.000000"],
      "TransmitCoilName": "Body",
      "VariableFlipAngleFlag": "N",
      "WindowCenterWidthExplanation": "Algo1",
      "dBdt": 0.0},
    "slices": {}
  },
  "time": {
    "samples": {
      "AcquisitionNumber": [1, 2, 3, 4, 5, 6, 7, 8, 9, 10, 11, 12, 13, 14, 15, 16, 17, 18, 19, 20, 21, 22, 23, 24, 25, 26, 27, 28, 29, 30, 31, 32, 33, 34, 35, 36, 37, 38, 39, 40, 41, 42, 43, 44, 45, 46, 47, 48, 49, 50, 51, 52, 53, 54, 55, 56, 57, 58, 59, 60, 61, 62, 63, 64, 65, 66, 67, 68, 69, 70, 71, 72, 73, 74, 75, 76, 77, 78, 79, 80, 81, 82, 83, 84, 85, 86, 87, 88, 89, 90, 91, 92, 93, 94, 95, 96, 97, 98, 99, 100, 101, 102, 103, 104, 105, 106, 107, 108, 109, 110, 111, 112, 113, 114, 115, 116, 117, 118, 119, 120, 121, 122, 123, 124, 125, 126, 127, 128, 129, 130, 131, 132, 133, 134, 135, 136, 137, 138, 139, 140, 141, 142, 143, 144, 145, 146, 147, 148, 149, 150, 151, 152, 153, 154, 155],
      "AcquisitionTime": ["192225.592500", "192227.592500", "192229.592500", "192231.592500", "192233.592500", "192235.592500", "192237.592500", "192239.592500", "192241.592500", "192243.592500", "192245.592500", "192247.592500", "192249.592500", "192251.592500", "192253.592500", "192255.592500", "192257.592500", "192259.592500", "192301.592500", "192303.592500", "192305.592500", "192307.592500", "192309.592500", "192311.592500", "192313.592500", "192315.592500", "192317.592500", "192319.592500", "192321.592500", "192323.592500", "192325.592500", "192327.592500", "192329.592500", "192331.592500", "192333.592500", "192335.592500", "192337.592500", "192339.592500", "192341.592500", "192343.592500", "192345.592500", "192347.592500", "192349.592500", "192351.592500", "192353.592500", "192355.592500", "192357.592500", "192359.592500", "192401.592500", "192403.592500", "192405.592500", "192407.592500", "192409.592500", "192411.592500", "192413.592500", "192415.592500", "192417.592500", "192419.592500", "192421.592500", "192423.595000", "192425.595000", "192427.595000", "192429.595000", "192431.595000", "192433.595000", "192435.595000", "192437.595000", "192439.595000", "192441.595000", "192443.595000", "192445.595000", "192447.595000", "192449.595000", "192451.595000", "192453.595000", "192455.595000", "192457.595000", "192459.595000", "192501.595000", "192503.595000", "192505.595000", "192507.595000", "192509.595000", "192511.595000", "192513.595000", "192515.595000", "192517.595000", "192519.595000", "192521.595000", "192523.595000", "192525.595000", "192527.595000", "192529.595000", "192531.595000", "192533.595000", "192535.595000", "192537.595000", "192539.595000", "192541.595000", "192543.595000", "192545.595000", "192547.595000", "192549.595000", "192551.595000", "192553.595000", "192555.595000", "192557.595000", "192559.595000", "192601.595000", "192603.595000", "192605.595000", "192607.595000", "192609.595000", "192611.595000", "192613.595000", "192615.595000", "192617.595000", "192619.595000", "192621.595000", "192623.595000", "192625.595000", "192627.595000", "192629.595000", "192631.595000", "192633.595000", "192635.595000", "192637.595000", "192639.595000", "192641.595000", "192643.595000", "192645.595000", "192647.595000", "192649.595000", "192651.595000", "192653.595000", "192655.595000", "192657.595000", "192659.595000", "192701.595000", "192703.595000", "192705.595000", "192707.595000", "192709.595000", "192711.595000", "192713.595000", "192715.595000", "192717.595000", "192719.595000", "192721.595000", "192723.595000", "192725.595000", "192727.595000", "192729.595000", "192731.595000", "192733.595000"],
      "ContentTime": ["192235.401000", "192235.405000", "192235.407000", "192235.410000", "192235.413000", "192315.395000", "192315.398000", "192315.401000", "192315.409000", "192315.412000", "192315.414000", "192315.417000", "192315.420000", "192315.423000", "192315.436000", "192315.439000", "192315.442000", "192315.445000", "192315.448000", "192315.450000", "192315.453000", "192315.456000", "192315.458000", "192315.461000", "192315.464000", "192355.395000", "192355.398000", "192355.401000", "192355.404000", "192355.406000", "192355.409000", "192355.411000", "192355.414000", "192355.417000", "192355.420000", "192355.423000", "192355.426000", "192355.428000", "192355.431000", "192355.434000", "192355.437000", "192355.440000", "192355.443000", "192355.445000", "192355.448000", "192435.395000", "192435.398000", "192435.401000", "192435.404000", "192435.407000", "192435.410000", "192435.412000", "192435.415000", "192435.418000", "192435.421000", "192435.424000", "192435.427000", "192435.429000", "192435.432000", "192435.435000", "192435.437000", "192435.440000", "192435.443000", "192435.445000", "192435.448000", "192515.395000", "192515.399000", "192515.401000", "192515.404000", "192515.407000", "192515.410000", "192515.412000", "192515.415000", "192515.418000", "192515.421000", "192515.424000", "192515.426000", "192515.429000", "192515.432000", "192515.435000", "192515.438000", "192515.440000", "192515.443000", "192515.446000", "192515.449000", "192555.394000", "192555.398000", "192555.400000", "192555.403000", "192555.406000", "192555.408000", "192555.411000", "192555.414000", "192555.416000", "192555.419000", "192555.422000", "192555.425000", "192555.428000", "192555.431000", "192555.434000", "192555.437000", "192555.439000", "192555.442000", "192555.445000", "192555.448000", "192635.395000", "192635.398000", "192635.401000", "192635.404000", "192635.407000", "192635.410000", "192635.412000", "192635.415000", "192635.418000", "192635.421000", "192635.424000", "192635.427000", "192635.429000", "192635.432000", "192635.435000", "192635.437000", "192635.440000", "192635.443000", "192635.446000", "192635.448000", "192715.395000", "192715.409000", "192715.412000", "192715.415000", "192715.418000", "192715.421000", "192715.424000", "192715.426000", "192715.429000", "192715.432000", "192715.435000", "192715.438000", "192715.441000", "192715.443000", "192715.446000", "192715.449000", "192715.451000", "192715.454000", "192715.457000", "192715.460000", "192733.742000", "192733.745000", "192733.748000", "192733.750000", "192733.753000", "192733.756000", "192733.759000", "192733.761000", "192733.764000", "192733.784000"],
      "InstanceCreationTime": ["192235.401000", "192235.405000", "192235.407000", "192235.410000", "192235.413000", "192315.395000", "192315.398000", "192315.401000", "192315.409000", "192315.412000", "192315.414000", "192315.417000", "192315.420000", "192315.423000", "192315.436000", "192315.439000", "192315.442000", "192315.445000", "192315.448000", "192315.450000", "192315.453000", "192315.456000", "192315.458000", "192315.461000", "192315.464000", "192355.395000", "192355.398000", "192355.401000", "192355.404000", "192355.406000", "192355.409000", "192355.411000", "192355.414000", "192355.417000", "192355.420000", "192355.423000", "192355.426000", "192355.428000", "192355.431000", "192355.434000", "192355.437000", "192355.440000", "192355.443000", "192355.445000", "192355.448000", "192435.395000", "192435.398000", "192435.401000", "192435.404000", "192435.407000", "192435.410000", "192435.412000", "192435.415000", "192435.418000", "192435.421000", "192435.424000", "192435.427000", "192435.429000", "192435.432000", "192435.435000", "192435.437000", "192435.440000", "192435.443000", "192435.445000", "192435.448000", "192515.395000", "192515.399000", "192515.401000", "192515.404000", "192515.407000", "192515.410000", "192515.412000", "192515.415000", "192515.418000", "192515.421000", "192515.424000", "192515.426000", "192515.429000", "192515.432000", "192515.435000", "192515.438000", "192515.440000", "192515.443000", "192515.446000", "192515.449000", "192555.394000", "192555.398000", "192555.400000", "192555.403000", "192555.406000", "192555.408000", "192555.411000", "192555.414000", "192555.416000", "192555.419000", "192555.422000", "192555.425000", "192555.428000", "192555.431000", "192555.434000", "192555.437000", "192555.439000", "192555.442000", "192555.445000", "192555.448000", "192635.395000", "192635.398000", "192635.401000", "192635.404000", "192635.407000", "192635.410000", "192635.412000", "192635.415000", "192635.418000", "192635.421000", "192635.424000", "192635.427000", "192635.429000", "192635.432000", "192635.435000", "192635.437000", "192635.440000", "192635.443000", "192635.446000", "192635.448000", "192715.395000", "192715.409000", "192715.412000", "192715.415000", "192715.418000", "192715.421000", "192715.424000", "192715.426000", "192715.429000", "192715.432000", "192715.435000", "192715.438000", "192715.441000", "192715.443000", "192715.446000", "192715.449000", "192715.451000", "192715.454000", "192715.457000", "192715.460000", "192733.742000", "192733.745000", "192733.748000", "192733.750000", "192733.753000", "192733.756000", "192733.759000", "192733.761000", "192733.764000", "192733.784000"],
      "InstanceNumber": [1, 2, 3, 4, 5, 6, 7, 8, 9, 10, 11, 12, 13, 14, 15, 16, 17, 18, 19, 20, 21, 22, 23, 24, 25, 26, 27, 28, 29, 30, 31, 32, 33, 34, 35, 36, 37, 38, 39, 40, 41, 42, 43, 44, 45, 46, 47, 48, 49, 50, 51, 52, 53, 54, 55, 56, 57, 58, 59, 60, 61, 62, 63, 64, 65, 66, 67, 68, 69, 70, 71, 72, 73, 74, 75, 76, 77, 78, 79, 80, 81, 82, 83, 84, 85, 86, 87, 88, 89, 90, 91, 92, 93, 94, 95, 96, 97, 98, 99, 100, 101, 102, 103, 104, 105, 106, 107, 108, 109, 110, 111, 112, 113, 114, 115, 116, 117, 118, 119, 120, 121, 122, 123, 124, 125, 126, 127, 128, 129, 130, 131, 132, 133, 134, 135, 136, 137, 138, 139, 140, 141, 142, 143, 144, 145, 146, 147, 148, 149, 150, 151, 152, 153, 154, 155],
      "LargestImagePixelValue": [867, 850, 839, 843, 836, 834, 870, 833, 836, 908, 844, 910, 835, 891, 866, 881, 869, 1001, 872, 840, 849, 841, 834, 846, 1013, 982, 842, 846, 847, 848, 851, 849, 845, 846, 856, 843, 846, 850, 861, 860, 848, 854, 849, 877, 864, 851, 864, 853, 906, 851, 848, 999, 855, 955, 859, 856, 860, 973, 860, 860, 862, 857, 856, 887, 854, 848, 848, 851, 851, 849, 852, 882, 847, 919, 933, 882, 853, 1039, 854, 861, 890, 851, 862, 862, 862, 858, 857, 918, 862, 953, 878, 857, 851, 900, 851, 844, 895, 864, 856, 862, 864, 858, 861, 863, 862, 876, 867, 857, 856, 858, 858, 905, 867, 860, 853, 933, 855, 850, 872, 858, 852, 861, 895, 852, 900, 910, 847, 870, 843, 884, 1017, 848, 848, 854, 847, 923, 852, 916, 864, 854, 847, 920, 853, 893, 861, 861, 858, 853, 855, 857, 854, 855, 858, 855, 856],
      "WindowCenter": [482.0, 481.0, 480.0, 481.0, 481.0, 481.0, 482.0, 481.0, 481.0, 482.0, 481.0, 483.0, 481.0, 482.0, 482.0, 482.0, 482.0, 483.0, 481.0, 480.0, 480.0, 481.0, 481.0, 481.0, 484.0, 483.0, 481.0, 481.0, 480.0, 480.0, 480.0, 480.0, 481.0, 480.0, 481.0, 481.0, 480.0, 481.0, 481.0, 481.0, 481.0, 481.0, 481.0, 480.0, 480.0, 481.0, 481.0, 481.0, 482.0, 481.0, 481.0, 483.0, 481.0, 483.0, 482.0, 482.0, 480.0, 482.0, 480.0, 480.0, 480.0, 480.0, 480.0, 479.0, 479.0, 478.0, 478.0, 479.0, 479.0, 478.0, 479.0, 480.0, 481.0, 482.0, 482.0, 481.0, 481.0, 484.0, 481.0, 481.0, 481.0, 480.0, 480.0, 480.0, 479.0, 480.0, 480.0, 481.0, 481.0, 482.0, 481.0, 481.0, 480.0, 481.0, 481.0, 480.0, 481.0, 480.0, 481.0, 481.0, 480.0, 481.0, 481.0, 481.0, 481.0, 481.0, 481.0, 480.0, 480.0, 480.0, 481.0, 481.0, 480.0, 480.0, 480.0, 481.0, 480.0, 480.0, 481.0, 480.0, 480.0, 481.0, 480.0, 481.0, 481.0, 481.0, 480.0, 481.0, 480.0, 481.0, 482.0, 479.0, 478.0, 479.0, 480.0, 481.0, 480.0, 481.0, 478.0, 478.0, 477.0, 479.0, 479.0, 480.0, 478.0, 478.0, 478.0, 479.0, 479.0, 480.0, 479.0, 479.0, 480.0, 480.0, 480.0],
      "WindowWidth": [1004.0, 1001.0, 1000.0, 1002.0, 1002.0, 1003.0, 1003.0, 1003.0, 1003.0, 1004.0, 1003.0, 1005.0, 1002.0, 1004.0, 1004.0, 1005.0, 1004.0, 1005.0, 1002.0, 1000.0, 1000.0, 1001.0, 1001.0, 1002.0, 1006.0, 1004.0, 1001.0, 1001.0, 1000.0, 999.0, 1000.0, 1001.0, 1001.0, 1000.0, 1001.0, 1001.0, 1001.0, 1001.0, 1002.0, 1002.0, 1001.0, 1001.0, 1001.0, 1000.0, 1000.0, 1002.0, 1002.0, 1002.0, 1003.0, 1001.0, 1002.0, 1005.0, 1001.0, 1005.0, 1004.0, 1003.0, 1001.0, 1003.0, 999.0, 999.0, 1000.0, 1001.0, 999.0, 999.0, 998.0, 997.0, 997.0, 998.0, 997.0, 997.0, 998.0, 1000.0, 1002.0, 1004.0, 1003.0, 1001.0, 1001.0, 1007.0, 1001.0, 1002.0, 1002.0, 999.0, 1000.0, 999.0, 998.0, 999.0, 1000.0, 1001.0, 1002.0, 1004.0, 1002.0, 1001.0, 1000.0, 1002.0, 1001.0, 1000.0, 1002.0, 1000.0, 1001.0, 1001.0, 1000.0, 1001.0, 1001.0, 1001.0, 1001.0, 1001.0, 1001.0, 1000.0, 1000.0, 1000.0, 1001.0, 1002.0, 1000.0, 1000.0, 1000.0, 1001.0, 1000.0, 1000.0, 1001.0, 1000.0, 1000.0, 1001.0, 1000.0, 1001.0, 1001.0, 1002.0, 1001.0, 1002.0, 1000.0, 1001.0, 1003.0, 999.0, 997.0, 998.0, 1000.0, 1002.0, 1001.0, 1001.0, 997.0, 996.0, 995.0, 997.0, 999.0, 999.0, 997.0, 997.0, 997.0, 998.0, 998.0, 999.0, 998.0, 998.0, 1000.0, 1000.0, 1000.0]
    },
    "slices": {}
  }
}