{
  "AcquisitionMatrixPE": 64,
  "AcquisitionNumber": 1,
  "AcquisitionTime": "18:51:13.767500",
  "BandwidthPerPixelPhaseEncode": 40.064,
  "BaseResolution": 64,
  "BodyPartExamined": "BRAIN",
  "ConsistencyInfo": "N4_VD13D_LATEST_20130810",
  "ConversionSoftware": "dcm2niix",
  "ConversionSoftwareVersion": "v1.0.20191031",
  "DerivedVendorReportedEchoSpacing": 0.000780002,
  "DeviceSerialNumber": "67007",
  "DwellTime": 5.3e-06,
  "EchoTime": 0.03,
  "EchoTrainLength": 31,
  "EffectiveEchoSpacing": 0.000390001,
  "FlipAngle": 75,
  "ImageOrientationPatientDICOM": [0.999133, 0.0414006, 0.00450159, -0.0401293, 0.98603, -0.161662],
  "ImageType": [
    "ORIGINAL",
    "PRIMARY",
    "M",
    "ND",
    "NORM",
    "MOSAIC"
],
  "ImagingFrequency": 123.211,
  "InPlanePhaseEncodingDirectionDICOM": "ROW",
  "InstitutionAddress": "Perth_Drive_100_London_Ontario_CA_N6A_5K8",
  "InstitutionName": "Robarts_Research_Institute",
  "InstitutionalDepartmentName": "CFMM",
  "MRAcquisitionType": "2D",
  "MagneticFieldStrength": 3,
  "Manufacturer": "Siemens",
  "ManufacturersModelName": "Prisma_fit",
  "Modality": "MR",
  "ParallelReductionFactorInPlane": 2,
  "PartialFourier": 1,
  "PatientPosition": "HFS",
  "PercentPhaseFOV": 100,
  "PhaseEncodingDirection": "i",
  "PhaseEncodingSteps": 63,
  "PhaseResolution": 1,
  "PixelBandwidth": 1475,
  "ProcedureStepDescription": "Owen_Naci",
  "ProtocolName": "Resting_State",
  "PulseSequenceDetails": "%SiemensSeq%_ep2d_bold",
  "ReceiveCoilActiveElements": "HEA;HEP",
  "ReceiveCoilName": "Head_32",
  "ReconMatrixPE": 64,
  "RefLinesPE": 24,
  "RepetitionTime": 2,
  "SAR": 0.121103,
  "ScanOptions": "FS",
  "ScanningSequence": "EP",
  "SequenceName": "_epfid2d1_64",
  "SequenceVariant": "SK",
  "SeriesDescription": "Resting_State",
  "SeriesNumber": 5,
  "ShimSetting": [5262, -6210, -3765, 402, 28, -118, 122, -6],
  "SliceThickness": 3,
  "SliceTiming": [1.92, 1.86, 1.8, 1.74, 1.68, 1.62, 1.56, 1.5, 1.44, 1.38, 1.32, 1.26, 1.2, 1.14, 1.08, 1.02, 0.96, 0.9, 0.84, 0.78, 0.72, 0.66, 0.6, 0.54, 0.48, 0.42, 0.36, 0.3, 0.24, 0.18, 0.12, 0.06, 0],
  "SoftwareVersions": "syngo_MR_D13D",
  "SpacingBetweenSlices": 3.75,
  "StationName": "AWP67007",
  "TaskName": "rest",
  "TotalReadoutTime": 0.0245701,
  "TxRefAmp": 322.304,
  "dcmmeta_affine": [
    [-2.9973974227905273, -0.12038791924715042, 0.04174353927373886, 101.47430419921875],
    [-0.12420179694890976, 2.958089828491211, -0.605029284954071, -64.37215423583984],
    [0.01350477896630764, 0.4849861264228821, 3.700634479522705, -41.04717254638672],
    [0.0, 0.0, 0.0, 1.0]
],
  "dcmmeta_reorient_transform": [
    [0.0, -1.0, 0.0, 63.0],
    [1.0, 0.0, 0.0, 0.0],
    [0.0, 0.0, 1.0, 0.0],
    [0.0, 0.0, 0.0, 1.0]
],
  "dcmmeta_shape": [64, 64, 33, 136],
  "dcmmeta_slice_dim": 2,
  "dcmmeta_version": 0.6,
  "global": {
    "const": {
      "AcquisitionMatrix": [0, 64, 64, 0],
      "AngioFlag": "N",
      "BitsAllocated": 16,
      "BitsStored": 12,
      "BodyPartExamined": "BRAIN",
      "Columns": 384,
      "EchoNumbers": 1,
      "EchoTime": 30.0,
      "EchoTrainLength": 31,
      "FlipAngle": 75.0,
      "HighBit": 11,
      "ImageOrientationPatient": [0.99913248669789, 0.04140060004933, 0.0045015931021, -0.0401293067298, 0.9860299298234, -0.1616620432688],
      "ImagePositionPatient": [-554.21138984718, -615.15415314492, 64.943971145387],
      "ImageType": [
        "ORIGINAL",
        "PRIMARY",
        "M",
        "ND",
        "NORM",
        "MOSAIC"
],
      "ImagedNucleus": "1H",
      "ImagingFrequency": 123.211187,
      "InPlanePhaseEncodingDirection": "ROW",
      "MRAcquisitionType": "2D",
      "MagneticFieldStrength": 3.0,
      "Manufacturer": "SIEMENS",
      "ManufacturerModelName": "Prisma_fit",
      "Modality": "MR",
      "NumberOfAverages": 1.0,
      "NumberOfPhaseEncodingSteps": 63,
      "PercentPhaseFieldOfView": 100.0,
      "PercentSampling": 100.0,
      "PerformedProcedureStepStartTime": "183209.631000",
      "PhotometricInterpretation": "MONOCHROME2",
      "PixelBandwidth": 1475.0,
      "PixelRepresentation": 0,
      "PixelSpacing": [3.0, 3.0],
      "ProtocolName": "Resting State",
      "RepetitionTime": 2000.0,
      "Rows": 384,
      "SAR": 0.12110299955505,
      "SamplesPerPixel": 1,
      "ScanOptions": "FS",
      "ScanningSequence": "EP",
      "SequenceName": "*epfid2d1_64",
      "SequenceVariant": "SK",
      "SeriesDescription": "Resting State",
      "SeriesNumber": 5,
      "SeriesTime": "185207.820000",
      "SliceLocation": -28.991371898816,
      "SliceThickness": 3.0,
      "SmallestImagePixelValue": 0,
      "SoftwareVersions": "syngo MR D13D",
      "SpacingBetweenSlices": 3.7499999177386,
      "SpecificCharacterSet": "ISO_IR 100",
      "StudyID": "1",
      "StudyTime": "183209.576000",
      "TimeOfLastCalibration": ["123723.000000", "123723.000000"],
      "TransmitCoilName": "Body",
      "VariableFlipAngleFlag": "N",
      "WindowCenterWidthExplanation": "Algo1",
      "dBdt": 0.0},
    "slices": {}
  },
  "time": {
    "samples": {
      "AcquisitionNumber": [1, 2, 4, 5, 6, 10, 11, 12, 14, 15, 20, 21, 27, 29, 30, 33, 36, 37, 38, 42, 44, 45, 46, 49, 50, 53, 58, 60, 65, 66, 67, 69, 70, 71, 74, 75, 79, 81, 82, 89, 90, 91, 92, 97, 98, 101, 103, 104, 105, 106, 108, 110, 112, 113, 115, 116, 117, 119, 120, 121, 122, 123, 127, 128, 130, 131, 136, 138, 139, 140, 142, 143, 145, 146, 147, 148, 149, 150, 151, 153, 154, 155, 158, 159, 160, 163, 164, 167, 170, 171, 173, 176, 179, 180, 181, 182, 183, 184, 187, 188, 190, 191, 194, 195, 198, 200, 204, 207, 208, 210, 213, 216, 217, 218, 219, 222, 223, 225, 227, 229, 230, 234, 235, 236, 237, 240, 242, 243, 245, 246, 247, 248, 249, 250, 251, 252],
      "AcquisitionTime": ["185113.767500", "185115.767500", "185119.767500", "185121.767500", "185123.767500", "185131.767500", "185133.767500", "185135.767500", "185139.767500", "185141.767500", "185151.767500", "185153.767500", "185205.767500", "185209.767500", "185211.767500", "185217.767500", "185223.767500", "185225.767500", "185227.767500", "185235.767500", "185239.767500", "185241.767500", "185243.767500", "185249.767500", "185251.767500", "185257.767500", "185307.767500", "185311.767500", "185321.767500", "185323.767500", "185325.767500", "185329.767500", "185331.767500", "185333.767500", "185339.767500", "185341.767500", "185349.767500", "185353.767500", "185355.767500", "185409.767500", "185411.767500", "185413.767500", "185415.767500", "185425.767500", "185427.767500", "185433.767500", "185437.767500", "185439.767500", "185441.767500", "185443.767500", "185447.767500", "185451.767500", "185455.767500", "185457.767500", "185501.767500", "185503.767500", "185505.767500", "185509.767500", "185511.767500", "185513.767500", "185515.767500", "185517.767500", "185525.767500", "185527.767500", "185531.767500", "185533.767500", "185543.767500", "185547.767500", "185549.767500", "185551.767500", "185555.767500", "185557.767500", "185601.767500", "185603.767500", "185605.767500", "185607.767500", "185609.767500", "185611.767500", "185613.767500", "185617.767500", "185619.767500", "185621.767500", "185627.767500", "185629.767500", "185631.767500", "185637.767500", "185639.767500", "185645.767500", "185651.767500", "185653.767500", "185657.767500", "185703.767500", "185709.767500", "185711.767500", "185713.767500", "185715.767500", "185717.767500", "185719.767500", "185725.767500", "185727.767500", "185731.767500", "185733.767500", "185739.767500", "185741.767500", "185747.767500", "185751.767500", "185759.767500", "185805.767500", "185807.767500", "185811.767500", "185817.767500", "185823.767500", "185825.767500", "185827.767500", "185829.767500", "185835.767500", "185837.767500", "185841.767500", "185845.770000", "185849.770000", "185851.770000", "185859.770000", "185901.770000", "185903.770000", "185905.770000", "185911.770000", "185915.770000", "185917.770000", "185921.770000", "185923.770000", "185925.770000", "185927.770000", "185929.770000", "185931.770000", "185933.770000", "185935.770000"],
      "ContentTime": ["185207.825000", "185207.828000", "185207.834000", "185207.841000", "185207.844000", "185207.855000", "185207.857000", "185207.860000", "185207.865000", "185207.868000", "185207.882000", "185207.885000", "185207.901000", "185247.822000", "185247.824000", "185247.833000", "185247.841000", "185247.843000", "185247.846000", "185247.857000", "185247.862000", "185247.865000", "185247.874000", "185307.820000", "185307.823000", "185307.831000", "185347.817000", "185347.823000", "185347.836000", "185347.845000", "185347.847000", "185347.853000", "185347.856000", "185347.859000", "185347.867000", "185347.870000", "185427.820000", "185427.826000", "185427.829000", "185427.849000", "185427.852000", "185427.855000", "185427.858000", "185427.872000", "185507.818000", "185507.826000", "185507.832000", "185507.835000", "185507.838000", "185507.840000", "185507.846000", "185507.851000", "185507.857000", "185507.860000", "185507.866000", "185507.869000", "185507.871000", "185547.822000", "185547.825000", "185547.827000", "185547.830000", "185547.833000", "185547.844000", "185547.847000", "185547.853000", "185547.856000", "185547.870000", "185627.819000", "185627.822000", "185627.824000", "185627.830000", "185627.845000", "185627.851000", "185627.853000", "185627.856000", "185627.859000", "185627.862000", "185627.864000", "185627.867000", "185627.873000", "185627.876000", "185627.879000", "185707.817000", "185707.820000", "185707.823000", "185707.832000", "185707.834000", "185707.843000", "185707.851000", "185707.854000", "185707.860000", "185707.868000", "185747.822000", "185747.825000", "185747.827000", "185747.830000", "185747.833000", "185747.836000", "185747.844000", "185747.847000", "185747.852000", "185747.855000", "185747.863000", "185747.866000", "185827.819000", "185827.825000", "185827.836000", "185827.845000", "185827.847000", "185827.853000", "185827.862000", "185827.870000", "185827.873000", "185907.819000", "185907.823000", "185907.831000", "185907.834000", "185907.839000", "185907.845000", "185907.851000", "185907.854000", "185907.865000", "185907.868000", "185907.870000", "185907.873000", "185944.599000", "185944.605000", "185944.608000", "185944.613000", "185944.616000", "185944.620000", "185944.625000", "185944.630000", "185944.633000", "185944.636000", "185944.640000"],
      "InstanceCreationTime": ["185207.825000", "185207.828000", "185207.834000", "185207.841000", "185207.844000", "185207.855000", "185207.857000", "185207.860000", "185207.865000", "185207.868000", "185207.882000", "185207.885000", "185207.901000", "185247.822000", "185247.824000", "185247.833000", "185247.841000", "185247.843000", "185247.846000", "185247.857000", "185247.862000", "185247.865000", "185247.874000", "185307.820000", "185307.823000", "185307.831000", "185347.817000", "185347.823000", "185347.836000", "185347.845000", "185347.847000", "185347.853000", "185347.856000", "185347.859000", "185347.867000", "185347.870000", "185427.820000", "185427.826000", "185427.829000", "185427.849000", "185427.852000", "185427.855000", "185427.858000", "185427.872000", "185507.818000", "185507.826000", "185507.832000", "185507.835000", "185507.838000", "185507.840000", "185507.846000", "185507.851000", "185507.857000", "185507.860000", "185507.866000", "185507.869000", "185507.871000", "185547.822000", "185547.825000", "185547.827000", "185547.830000", "185547.833000", "185547.844000", "185547.847000", "185547.853000", "185547.856000", "185547.870000", "185627.819000", "185627.822000", "185627.824000", "185627.830000", "185627.845000", "185627.851000", "185627.853000", "185627.856000", "185627.859000", "185627.862000", "185627.864000", "185627.867000", "185627.873000", "185627.876000", "185627.879000", "185707.817000", "185707.820000", "185707.823000", "185707.832000", "185707.834000", "185707.843000", "185707.851000", "185707.854000", "185707.860000", "185707.868000", "185747.822000", "185747.825000", "185747.827000", "185747.830000", "185747.833000", "185747.836000", "185747.844000", "185747.847000", "185747.852000", "185747.855000", "185747.863000", "185747.866000", "185827.819000", "185827.825000", "185827.836000", "185827.845000", "185827.847000", "185827.853000", "185827.862000", "185827.870000", "185827.873000", "185907.819000", "185907.823000", "185907.831000", "185907.834000", "185907.839000", "185907.845000", "185907.851000", "185907.854000", "185907.865000", "185907.868000", "185907.870000", "185907.873000", "185944.599000", "185944.605000", "185944.608000", "185944.613000", "185944.616000", "185944.620000", "185944.625000", "185944.630000", "185944.633000", "185944.636000", "185944.640000"],
      "InstanceNumber": [1, 2, 4, 5, 6, 10, 11, 12, 14, 15, 20, 21, 27, 29, 30, 33, 36, 37, 38, 42, 44, 45, 46, 49, 50, 53, 58, 60, 65, 66, 67, 69, 70, 71, 74, 75, 79, 81, 82, 89, 90, 91, 92, 97, 98, 101, 103, 104, 105, 106, 108, 110, 112, 113, 115, 116, 117, 119, 120, 121, 122, 123, 127, 128, 130, 131, 136, 138, 139, 140, 142, 143, 145, 146, 147, 148, 149, 150, 151, 153, 154, 155, 158, 159, 160, 163, 164, 167, 170, 171, 173, 176, 179, 180, 181, 182, 183, 184, 187, 188, 190, 191, 194, 195, 198, 200, 204, 207, 208, 210, 213, 216, 217, 218, 219, 222, 223, 225, 227, 229, 230, 234, 235, 236, 237, 240, 242, 243, 245, 246, 247, 248, 249, 250, 251, 252],
      "LargestImagePixelValue": [897, 946, 959, 819, 932, 933, 892, 888, 852, 874, 1072, 1050, 985, 850, 828, 1003, 858, 1015, 921, 931, 846, 909, 882, 972, 858, 959, 1161, 879, 927, 856, 878, 879, 889, 879, 927, 923, 986, 918, 952, 1082, 993, 846, 858, 996, 909, 985, 934, 850, 931, 924, 857, 867, 907, 1090, 888, 957, 864, 863, 959, 925, 929, 909, 874, 845, 857, 904, 1044, 1064, 907, 1055, 966, 1059, 905, 875, 949, 878, 885, 852, 1114, 934, 1003, 842, 973, 1082, 971, 1029, 905, 1064, 1053, 860, 985, 890, 964, 932, 901, 986, 865, 885, 971, 1109, 936, 871, 926, 1010, 1082, 1088, 1024, 875, 1003, 1082, 868, 1083, 829, 998, 868, 1001, 1038, 1074, 1093, 1047, 982, 877, 869, 868, 951, 1069, 1056, 870, 852, 874, 849, 826, 911, 1075, 1066, 1003],
      "WindowCenter": [482.0, 481.0, 480.0, 479.0, 480.0, 480.0, 480.0, 481.0, 480.0, 480.0, 482.0, 482.0, 482.0, 480.0, 480.0, 483.0, 481.0, 483.0, 481.0, 481.0, 481.0, 483.0, 483.0, 484.0, 481.0, 482.0, 485.0, 481.0, 482.0, 482.0, 482.0, 481.0, 481.0, 483.0, 482.0, 483.0, 483.0, 482.0, 482.0, 486.0, 483.0, 480.0, 480.0, 483.0, 482.0, 484.0, 483.0, 482.0, 482.0, 483.0, 483.0, 482.0, 482.0, 484.0, 481.0, 482.0, 481.0, 481.0, 482.0, 482.0, 482.0, 482.0, 481.0, 479.0, 481.0, 482.0, 486.0, 485.0, 482.0, 484.0, 483.0, 484.0, 483.0, 482.0, 483.0, 482.0, 483.0, 482.0, 485.0, 482.0, 483.0, 480.0, 483.0, 484.0, 482.0, 483.0, 482.0, 487.0, 484.0, 482.0, 484.0, 482.0, 484.0, 483.0, 484.0, 484.0, 482.0, 482.0, 485.0, 486.0, 484.0, 483.0, 483.0, 484.0, 484.0, 483.0, 482.0, 483.0, 485.0, 483.0, 481.0, 483.0, 479.0, 481.0, 479.0, 483.0, 483.0, 483.0, 483.0, 483.0, 482.0, 481.0, 481.0, 481.0, 482.0, 483.0, 482.0, 481.0, 481.0, 482.0, 481.0, 482.0, 484.0, 486.0, 484.0, 484.0],
      "WindowWidth": [1005.0, 1002.0, 1000.0, 999.0, 1000.0, 1000.0, 1000.0, 1001.0, 999.0, 999.0, 1003.0, 1003.0, 1003.0, 999.0, 1000.0, 1005.0, 1002.0, 1005.0, 1002.0, 1002.0, 1001.0, 1004.0, 1005.0, 1006.0, 1002.0, 1003.0, 1008.0, 1002.0, 1004.0, 1004.0, 1004.0, 1001.0, 1002.0, 1005.0, 1004.0, 1005.0, 1006.0, 1004.0, 1004.0, 1010.0, 1005.0, 999.0, 999.0, 1004.0, 1003.0, 1006.0, 1005.0, 1003.0, 1004.0, 1005.0, 1005.0, 1003.0, 1004.0, 1006.0, 1002.0, 1004.0, 1002.0, 1001.0, 1003.0, 1003.0, 1003.0, 1003.0, 1001.0, 999.0, 1001.0, 1003.0, 1009.0, 1008.0, 1004.0, 1006.0, 1004.0, 1006.0, 1005.0, 1004.0, 1005.0, 1003.0, 1005.0, 1004.0, 1008.0, 1003.0, 1004.0, 1000.0, 1004.0, 1006.0, 1004.0, 1005.0, 1003.0, 1012.0, 1007.0, 1003.0, 1006.0, 1003.0, 1007.0, 1005.0, 1006.0, 1006.0, 1004.0, 1004.0, 1009.0, 1011.0, 1007.0, 1005.0, 1004.0, 1007.0, 1006.0, 1005.0, 1003.0, 1005.0, 1009.0, 1005.0, 1002.0, 1005.0, 999.0, 1001.0, 999.0, 1005.0, 1005.0, 1005.0, 1005.0, 1005.0, 1004.0, 1001.0, 1001.0, 1001.0, 1003.0, 1004.0, 1003.0, 1001.0, 1002.0, 1002.0, 1002.0, 1004.0, 1007.0, 1009.0, 1007.0, 1006.0]
    },
    "slices": {}
  }
}