{
  "AcquisitionMatrixPE": 64,
  "AcquisitionNumber": 1,
  "AcquisitionTime": "19:59:26.715000",
  "BandwidthPerPixelPhaseEncode": 40.064,
  "BaseResolution": 64,
  "BodyPartExamined": "BRAIN",
  "ConsistencyInfo": "N4_VD13D_LATEST_20130810",
  "ConversionSoftware": "dcm2niix",
  "ConversionSoftwareVersion": "v1.0.20191031",
  "DerivedVendorReportedEchoSpacing": 0.000780002,
  "DeviceSerialNumber": "67007",
  "DwellTime": 5.3e-06,
  "EchoTime": 0.03,
  "EchoTrainLength": 31,
  "EffectiveEchoSpacing": 0.000390001,
  "FlipAngle": 75,
  "ImageOrientationPatientDICOM": [0.999133, 0.0414006, 0.00450159, -0.0401293, 0.98603, -0.161662],
  "ImageType": [
    "ORIGINAL",
    "PRIMARY",
    "M",
    "ND",
    "NORM",
    "MOSAIC"
],
  "ImagingFrequency": 123.211,
  "InPlanePhaseEncodingDirectionDICOM": "ROW",
  "InstitutionAddress": "Perth_Drive_100_London_Ontario_CA_N6A_5K8",
  "InstitutionName": "Robarts_Research_Institute",
  "InstitutionalDepartmentName": "CFMM",
  "MRAcquisitionType": "2D",
  "MagneticFieldStrength": 3,
  "Manufacturer": "Siemens",
  "ManufacturersModelName": "Prisma_fit",
  "Modality": "MR",
  "ParallelReductionFactorInPlane": 2,
  "PartialFourier": 1,
  "PatientPosition": "HFS",
  "PercentPhaseFOV": 100,
  "PhaseEncodingDirection": "i",
  "PhaseEncodingSteps": 63,
  "PhaseResolution": 1,
  "PixelBandwidth": 1475,
  "ProcedureStepDescription": "Owen_Naci",
  "ProtocolName": "Resting_State_deep_sed",
  "PulseSequenceDetails": "%SiemensSeq%_ep2d_bold",
  "ReceiveCoilActiveElements": "HEA;HEP",
  "ReceiveCoilName": "Head_32",
  "ReconMatrixPE": 64,
  "RefLinesPE": 24,
  "RepetitionTime": 2,
  "SAR": 0.121103,
  "ScanOptions": "FS",
  "ScanningSequence": "EP",
  "SequenceName": "_epfid2d1_64",
  "SequenceVariant": "SK",
  "SeriesDescription": "Resting_State_deep_sed",
  "SeriesNumber": 13,
  "ShimSetting": [5262, -6210, -3765, 402, 28, -118, 122, -6],
  "SliceThickness": 3,
  "SliceTiming": [1.92, 1.86, 1.8, 1.74, 1.68, 1.62, 1.56, 1.5, 1.44, 1.38, 1.32, 1.26, 1.2, 1.14, 1.08, 1.02, 0.96, 0.9, 0.84, 0.78, 0.72, 0.66, 0.6, 0.54, 0.48, 0.42, 0.36, 0.3, 0.24, 0.18, 0.12, 0.06, 0],
  "SoftwareVersions": "syngo_MR_D13D",
  "SpacingBetweenSlices": 3.75,
  "StationName": "AWP67007",
  "TaskName": "restdeep",
  "TotalReadoutTime": 0.0245701,
  "TxRefAmp": 322.304,
  "dcmmeta_affine": [
    [-2.9973974227905273, -0.12038791924715042, 0.04174353927373886, 101.47430419921875],
    [-0.12420179694890976, 2.958089828491211, -0.605029284954071, -64.37215423583984],
    [0.01350477896630764, 0.4849861264228821, 3.700634479522705, -41.04717254638672],
    [0.0, 0.0, 0.0, 1.0]
],
  "dcmmeta_reorient_transform": [
    [0.0, -1.0, 0.0, 63.0],
    [1.0, 0.0, 0.0, 0.0],
    [0.0, 0.0, 1.0, 0.0],
    [0.0, 0.0, 0.0, 1.0]
],
  "dcmmeta_shape": [64, 64, 33, 256],
  "dcmmeta_slice_dim": 2,
  "dcmmeta_version": 0.6,
  "global": {
    "const": {
      "AcquisitionMatrix": [0, 64, 64, 0],
      "AngioFlag": "N",
      "BitsAllocated": 16,
      "BitsStored": 12,
      "BodyPartExamined": "BRAIN",
      "Columns": 384,
      "EchoNumbers": 1,
      "EchoTime": 30.0,
      "EchoTrainLength": 31,
      "FlipAngle": 75.0,
      "HighBit": 11,
      "ImageOrientationPatient": [0.99913248669789, 0.04140060004933, 0.0045015931021, -0.0401293067298, 0.9860299298234, -0.1616620432688],
      "ImagePositionPatient": [-554.21138984718, -615.15415314492, 64.943971145387],
      "ImageType": [
        "ORIGINAL",
        "PRIMARY",
        "M",
        "ND",
        "NORM",
        "MOSAIC"
],
      "ImagedNucleus": "1H",
      "ImagingFrequency": 123.211182,
      "InPlanePhaseEncodingDirection": "ROW",
      "MRAcquisitionType": "2D",
      "MagneticFieldStrength": 3.0,
      "Manufacturer": "SIEMENS",
      "ManufacturerModelName": "Prisma_fit",
      "Modality": "MR",
      "NumberOfAverages": 1.0,
      "NumberOfPhaseEncodingSteps": 63,
      "PercentPhaseFieldOfView": 100.0,
      "PercentSampling": 100.0,
      "PerformedProcedureStepStartTime": "183209.631000",
      "PhotometricInterpretation": "MONOCHROME2",
      "PixelBandwidth": 1475.0,
      "PixelRepresentation": 0,
      "PixelSpacing": [3.0, 3.0],
      "ProtocolName": "Resting State_deep sed",
      "RepetitionTime": 2000.0,
      "Rows": 384,
      "SAR": 0.12110299955505,
      "SamplesPerPixel": 1,
      "ScanOptions": "FS",
      "ScanningSequence": "EP",
      "SequenceName": "*epfid2d1_64",
      "SequenceVariant": "SK",
      "SeriesDescription": "Resting State_deep sed",
      "SeriesNumber": 13,
      "SeriesTime": "200015.397000",
      "SliceLocation": -28.991371898816,
      "SliceThickness": 3.0,
      "SmallestImagePixelValue": 0,
      "SoftwareVersions": "syngo MR D13D",
      "SpacingBetweenSlices": 3.7499999177386,
      "SpecificCharacterSet": "ISO_IR 100",
      "StudyID": "1",
      "StudyTime": "183209.576000",
      "TimeOfLastCalibration": ["123723.000000", "123723.000000"],
      "TransmitCoilName": "Body",
      "VariableFlipAngleFlag": "N",
      "WindowCenterWidthExplanation": "Algo1",
      "dBdt": 0.0},
    "slices": {}
  },
  "time": {
    "samples": {
      "AcquisitionNumber": [1, 2, 3, 4, 5, 6, 7, 8, 9, 10, 11, 12, 13, 14, 15, 16, 17, 18, 19, 20, 21, 22, 23, 24, 25, 26, 27, 28, 29, 30, 31, 32, 33, 34, 35, 36, 37, 38, 39, 40, 41, 42, 43, 44, 45, 46, 47, 48, 49, 50, 51, 52, 53, 54, 55, 56, 57, 58, 59, 60, 61, 62, 63, 64, 65, 66, 67, 68, 69, 70, 71, 72, 73, 74, 75, 76, 77, 78, 79, 80, 81, 82, 83, 84, 85, 86, 87, 88, 89, 90, 91, 92, 93, 94, 95, 96, 97, 98, 99, 100, 101, 102, 103, 104, 105, 106, 107, 108, 109, 110, 111, 112, 113, 114, 115, 116, 117, 118, 119, 120, 121, 122, 123, 124, 125, 126, 127, 128, 129, 130, 131, 132, 133, 134, 135, 136, 137, 138, 139, 140, 141, 142, 143, 144, 145, 146, 147, 148, 149, 150, 151, 152, 153, 154, 155, 156, 157, 158, 159, 160, 161, 162, 163, 164, 165, 166, 167, 168, 169, 170, 171, 172, 173, 174, 175, 176, 177, 178, 179, 180, 181, 182, 183, 184, 185, 186, 187, 188, 189, 190, 191, 192, 193, 194, 195, 196, 197, 198, 199, 200, 201, 202, 203, 204, 205, 206, 207, 208, 209, 210, 211, 212, 213, 214, 215, 216, 217, 218, 219, 220, 221, 222, 223, 224, 225, 226, 227, 228, 229, 230, 231, 232, 233, 234, 235, 236, 237, 238, 239, 240, 241, 242, 243, 244, 245, 246, 247, 248, 249, 250, 251, 252, 253, 254, 255, 256],
      "AcquisitionTime": ["195926.715000", "195928.715000", "195930.715000", "195932.715000", "195934.715000", "195936.715000", "195938.715000", "195940.715000", "195942.715000", "195944.715000", "195946.715000", "195948.715000", "195950.715000", "195952.715000", "195954.715000", "195956.715000", "195958.715000", "200000.715000", "200002.715000", "200004.715000", "200006.715000", "200008.715000", "200010.715000", "200012.715000", "200014.715000", "200016.715000", "200018.715000", "200020.715000", "200022.715000", "200024.715000", "200026.715000", "200028.715000", "200030.715000", "200032.715000", "200034.715000", "200036.715000", "200038.715000", "200040.715000", "200042.715000", "200044.715000", "200046.715000", "200048.715000", "200050.715000", "200052.715000", "200054.715000", "200056.715000", "200058.715000", "200100.715000", "200102.715000", "200104.715000", "200106.715000", "200108.715000", "200110.715000", "200112.715000", "200114.715000", "200116.715000", "200118.715000", "200120.715000", "200122.715000", "200124.715000", "200126.715000", "200128.715000", "200130.715000", "200132.715000", "200134.715000", "200136.715000", "200138.715000", "200140.715000", "200142.715000", "200144.715000", "200146.715000", "200148.715000", "200150.715000", "200152.715000", "200154.715000", "200156.715000", "200158.715000", "200200.715000", "200202.715000", "200204.715000", "200206.715000", "200208.715000", "200210.715000", "200212.715000", "200214.715000", "200216.715000", "200218.715000", "200220.715000", "200222.715000", "200224.715000", "200226.715000", "200228.715000", "200230.715000", "200232.715000", "200234.715000", "200236.715000", "200238.715000", "200240.715000", "200242.715000", "200244.715000", "200246.715000", "200248.715000", "200250.715000", "200252.715000", "200254.715000", "200256.715000", "200258.715000", "200300.715000", "200302.715000", "200304.715000", "200306.715000", "200308.715000", "200310.715000", "200312.715000", "200314.715000", "200316.715000", "200318.715000", "200320.715000", "200322.715000", "200324.715000", "200326.715000", "200328.715000", "200330.715000", "200332.715000", "200334.715000", "200336.715000", "200338.715000", "200340.715000", "200342.715000", "200344.715000", "200346.715000", "200348.715000", "200350.715000", "200352.715000", "200354.715000", "200356.715000", "200358.715000", "200400.715000", "200402.715000", "200404.715000", "200406.715000", "200408.715000", "200410.715000", "200412.715000", "200414.715000", "200416.715000", "200418.715000", "200420.715000", "200422.715000", "200424.715000", "200426.715000", "200428.715000", "200430.715000", "200432.715000", "200434.715000", "200436.715000", "200438.715000", "200440.715000", "200442.715000", "200444.715000", "200446.715000", "200448.715000", "200450.715000", "200452.715000", "200454.715000", "200456.715000", "200458.715000", "200500.715000", "200502.715000", "200504.715000", "200506.715000", "200508.715000", "200510.715000", "200512.715000", "200514.715000", "200516.715000", "200518.715000", "200520.715000", "200522.715000", "200524.715000", "200526.715000", "200528.715000", "200530.715000", "200532.715000", "200534.715000", "200536.715000", "200538.715000", "200540.715000", "200542.715000", "200544.715000", "200546.715000", "200548.715000", "200550.715000", "200552.717500", "200554.717500", "200556.717500", "200558.717500", "200600.717500", "200602.717500", "200604.717500", "200606.717500", "200608.717500", "200610.717500", "200612.717500", "200614.717500", "200616.717500", "200618.717500", "200620.717500", "200622.717500", "200624.717500", "200626.717500", "200628.717500", "200630.717500", "200632.717500", "200634.717500", "200636.717500", "200638.717500", "200640.717500", "200642.717500", "200644.717500", "200646.717500", "200648.717500", "200650.717500", "200652.717500", "200654.717500", "200656.717500", "200658.717500", "200700.717500", "200702.717500", "200704.717500", "200706.717500", "200708.717500", "200710.717500", "200712.717500", "200714.717500", "200716.717500", "200718.717500", "200720.717500", "200722.717500", "200724.717500", "200726.717500", "200728.717500", "200730.717500", "200732.717500", "200734.717500", "200736.717500", "200738.717500", "200740.717500", "200742.717500", "200744.717500", "200746.717500", "200748.717500", "200750.717500", "200752.717500", "200754.717500", "200756.717500"],
      "ContentTime": ["200015.401000", "200015.405000", "200015.407000", "200015.410000", "200015.413000", "200015.416000", "200015.419000", "200015.421000", "200015.424000", "200015.427000", "200015.430000", "200015.433000", "200015.436000", "200015.439000", "200015.441000", "200015.444000", "200015.447000", "200015.450000", "200015.453000", "200015.455000", "200015.458000", "200015.465000", "200015.468000", "200015.470000", "200055.395000", "200055.398000", "200055.401000", "200055.404000", "200055.407000", "200055.409000", "200055.412000", "200055.415000", "200055.418000", "200055.420000", "200055.423000", "200055.426000", "200055.429000", "200055.432000", "200055.435000", "200055.438000", "200055.440000", "200055.443000", "200055.446000", "200055.449000", "200135.395000", "200135.398000", "200135.401000", "200135.404000", "200135.406000", "200135.409000", "200135.412000", "200135.414000", "200135.417000", "200135.420000", "200135.423000", "200135.426000", "200135.429000", "200135.432000", "200135.434000", "200135.437000", "200135.440000", "200135.443000", "200135.446000", "200135.449000", "200215.395000", "200215.398000", "200215.401000", "200215.403000", "200215.406000", "200215.409000", "200215.412000", "200215.414000", "200215.417000", "200215.420000", "200215.423000", "200215.426000", "200215.429000", "200215.432000", "200215.434000", "200215.437000", "200215.440000", "200215.443000", "200215.446000", "200215.449000", "200255.395000", "200255.398000", "200255.401000", "200255.404000", "200255.407000", "200255.409000", "200255.412000", "200255.415000", "200255.418000", "200255.421000", "200255.423000", "200255.426000", "200255.429000", "200255.432000", "200255.435000", "200255.438000", "200255.441000", "200255.443000", "200255.446000", "200255.449000", "200315.395000", "200315.398000", "200315.401000", "200315.403000", "200315.406000", "200315.409000", "200315.411000", "200315.414000", "200315.417000", "200315.420000", "200355.395000", "200355.398000", "200355.401000", "200355.404000", "200355.406000", "200355.409000", "200355.412000", "200355.415000", "200355.418000", "200355.421000", "200355.423000", "200355.427000", "200355.429000", "200355.432000", "200355.435000", "200355.438000", "200355.440000", "200355.443000", "200355.446000", "200355.449000", "200435.395000", "200435.398000", "200435.401000", "200435.404000", "200435.406000", "200435.409000", "200435.412000", "200435.415000", "200435.418000", "200435.421000", "200435.423000", "200435.427000", "200435.429000", "200435.432000", "200435.435000", "200435.444000", "200435.447000", "200435.450000", "200435.453000", "200435.456000", "200515.395000", "200515.398000", "200515.401000", "200515.404000", "200515.406000", "200515.409000", "200515.412000", "200515.415000", "200515.418000", "200515.421000", "200515.424000", "200515.427000", "200515.429000", "200515.432000", "200515.435000", "200515.438000", "200515.441000", "200515.443000", "200515.446000", "200515.449000", "200555.395000", "200555.399000", "200555.401000", "200555.404000", "200555.407000", "200555.409000", "200555.412000", "200555.415000", "200555.417000", "200555.420000", "200555.423000", "200555.425000", "200555.428000", "200555.431000", "200555.434000", "200555.437000", "200555.440000", "200555.443000", "200555.445000", "200555.448000", "200635.395000", "200635.398000", "200635.401000", "200635.404000", "200635.406000", "200635.409000", "200635.412000", "200635.415000", "200635.417000", "200635.420000", "200635.423000", "200635.425000", "200635.428000", "200635.431000", "200635.434000", "200635.437000", "200635.439000", "200635.442000", "200635.445000", "200635.448000", "200715.395000", "200715.398000", "200715.401000", "200715.404000", "200715.407000", "200715.409000", "200715.412000", "200715.415000", "200715.418000", "200715.421000", "200715.423000", "200715.426000", "200715.429000", "200715.432000", "200715.435000", "200715.438000", "200715.442000", "200715.445000", "200715.447000", "200715.450000", "200755.395000", "200755.398000", "200755.401000", "200755.404000", "200755.406000", "200755.409000", "200755.412000", "200755.414000", "200755.417000", "200755.420000", "200755.423000", "200755.426000", "200755.438000", "200755.441000", "200755.443000", "200755.446000", "200755.449000", "200755.452000", "200755.454000", "200755.457000", "200757.807000", "200757.811000"],
      "InstanceCreationTime": ["200015.401000", "200015.405000", "200015.407000", "200015.410000", "200015.413000", "200015.416000", "200015.419000", "200015.421000", "200015.424000", "200015.427000", "200015.430000", "200015.433000", "200015.436000", "200015.439000", "200015.441000", "200015.444000", "200015.447000", "200015.450000", "200015.453000", "200015.455000", "200015.458000", "200015.465000", "200015.468000", "200015.470000", "200055.395000", "200055.398000", "200055.401000", "200055.404000", "200055.407000", "200055.409000", "200055.412000", "200055.415000", "200055.418000", "200055.420000", "200055.423000", "200055.426000", "200055.429000", "200055.432000", "200055.435000", "200055.438000", "200055.440000", "200055.443000", "200055.446000", "200055.449000", "200135.395000", "200135.398000", "200135.401000", "200135.404000", "200135.406000", "200135.409000", "200135.412000", "200135.414000", "200135.417000", "200135.420000", "200135.423000", "200135.426000", "200135.429000", "200135.432000", "200135.434000", "200135.437000", "200135.440000", "200135.443000", "200135.446000", "200135.449000", "200215.395000", "200215.398000", "200215.401000", "200215.403000", "200215.406000", "200215.409000", "200215.412000", "200215.414000", "200215.417000", "200215.420000", "200215.423000", "200215.426000", "200215.429000", "200215.432000", "200215.434000", "200215.437000", "200215.440000", "200215.443000", "200215.446000", "200215.449000", "200255.395000", "200255.398000", "200255.401000", "200255.404000", "200255.407000", "200255.409000", "200255.412000", "200255.415000", "200255.418000", "200255.421000", "200255.423000", "200255.426000", "200255.429000", "200255.432000", "200255.435000", "200255.438000", "200255.441000", "200255.443000", "200255.446000", "200255.449000", "200315.395000", "200315.398000", "200315.401000", "200315.403000", "200315.406000", "200315.409000", "200315.411000", "200315.414000", "200315.417000", "200315.420000", "200355.395000", "200355.398000", "200355.401000", "200355.404000", "200355.406000", "200355.409000", "200355.412000", "200355.415000", "200355.418000", "200355.421000", "200355.423000", "200355.427000", "200355.429000", "200355.432000", "200355.435000", "200355.438000", "200355.440000", "200355.443000", "200355.446000", "200355.449000", "200435.395000", "200435.398000", "200435.401000", "200435.404000", "200435.406000", "200435.409000", "200435.412000", "200435.415000", "200435.418000", "200435.421000", "200435.423000", "200435.427000", "200435.429000", "200435.432000", "200435.435000", "200435.444000", "200435.447000", "200435.450000", "200435.453000", "200435.456000", "200515.395000", "200515.398000", "200515.401000", "200515.404000", "200515.406000", "200515.409000", "200515.412000", "200515.415000", "200515.418000", "200515.421000", "200515.424000", "200515.427000", "200515.429000", "200515.432000", "200515.435000", "200515.438000", "200515.441000", "200515.443000", "200515.446000", "200515.449000", "200555.395000", "200555.399000", "200555.401000", "200555.404000", "200555.407000", "200555.409000", "200555.412000", "200555.415000", "200555.417000", "200555.420000", "200555.423000", "200555.425000", "200555.428000", "200555.431000", "200555.434000", "200555.437000", "200555.440000", "200555.443000", "200555.445000", "200555.448000", "200635.395000", "200635.398000", "200635.401000", "200635.404000", "200635.406000", "200635.409000", "200635.412000", "200635.415000", "200635.417000", "200635.420000", "200635.423000", "200635.425000", "200635.428000", "200635.431000", "200635.434000", "200635.437000", "200635.439000", "200635.442000", "200635.445000", "200635.448000", "200715.395000", "200715.398000", "200715.401000", "200715.404000", "200715.407000", "200715.409000", "200715.412000", "200715.415000", "200715.418000", "200715.421000", "200715.423000", "200715.426000", "200715.429000", "200715.432000", "200715.435000", "200715.438000", "200715.442000", "200715.445000", "200715.447000", "200715.450000", "200755.395000", "200755.398000", "200755.401000", "200755.404000", "200755.406000", "200755.409000", "200755.412000", "200755.414000", "200755.417000", "200755.420000", "200755.423000", "200755.426000", "200755.438000", "200755.441000", "200755.443000", "200755.446000", "200755.449000", "200755.452000", "200755.454000", "200755.457000", "200757.807000", "200757.811000"],
      "InstanceNumber": [1, 2, 3, 4, 5, 6, 7, 8, 9, 10, 11, 12, 13, 14, 15, 16, 17, 18, 19, 20, 21, 22, 23, 24, 25, 26, 27, 28, 29, 30, 31, 32, 33, 34, 35, 36, 37, 38, 39, 40, 41, 42, 43, 44, 45, 46, 47, 48, 49, 50, 51, 52, 53, 54, 55, 56, 57, 58, 59, 60, 61, 62, 63, 64, 65, 66, 67, 68, 69, 70, 71, 72, 73, 74, 75, 76, 77, 78, 79, 80, 81, 82, 83, 84, 85, 86, 87, 88, 89, 90, 91, 92, 93, 94, 95, 96, 97, 98, 99, 100, 101, 102, 103, 104, 105, 106, 107, 108, 109, 110, 111, 112, 113, 114, 115, 116, 117, 118, 119, 120, 121, 122, 123, 124, 125, 126, 127, 128, 129, 130, 131, 132, 133, 134, 135, 136, 137, 138, 139, 140, 141, 142, 143, 144, 145, 146, 147, 148, 149, 150, 151, 152, 153, 154, 155, 156, 157, 158, 159, 160, 161, 162, 163, 164, 165, 166, 167, 168, 169, 170, 171, 172, 173, 174, 175, 176, 177, 178, 179, 180, 181, 182, 183, 184, 185, 186, 187, 188, 189, 190, 191, 192, 193, 194, 195, 196, 197, 198, 199, 200, 201, 202, 203, 204, 205, 206, 207, 208, 209, 210, 211, 212, 213, 214, 215, 216, 217, 218, 219, 220, 221, 222, 223, 224, 225, 226, 227, 228, 229, 230, 231, 232, 233, 234, 235, 236, 237, 238, 239, 240, 241, 242, 243, 244, 245, 246, 247, 248, 249, 250, 251, 252, 253, 254, 255, 256],
      "LargestImagePixelValue": [958, 1117, 967, 1136, 1159, 913, 1017, 995, 931, 1109, 916, 999, 976, 971, 949, 1116, 1046, 1049, 1016, 983, 968, 991, 959, 923, 915, 1097, 898, 967, 979, 1072, 1125, 907, 960, 944, 1133, 918, 1024, 960, 1041, 1125, 946, 981, 931, 1186, 931, 981, 922, 1091, 914, 950, 1148, 943, 990, 940, 1135, 896, 920, 911, 1080, 948, 1006, 1064, 1107, 1023, 933, 1111, 981, 938, 974, 1061, 1080, 995, 1061, 971, 1059, 1094, 969, 1023, 1041, 1060, 1044, 1042, 1093, 1171, 893, 1167, 960, 1199, 1148, 1154, 1185, 991, 1034, 1047, 1037, 962, 935, 1123, 973, 1111, 1119, 897, 1190, 1018, 1121, 1033, 1060, 1035, 1002, 1144, 1162, 1066, 953, 1153, 1003, 1190, 928, 1191, 983, 1169, 1030, 1121, 1011, 1155, 1009, 1094, 953, 962, 1123, 955, 1084, 1065, 994, 1104, 1034, 1073, 978, 922, 1016, 926, 1122, 1123, 911, 1125, 921, 1122, 881, 1203, 982, 1051, 1061, 1058, 955, 970, 941, 944, 1122, 1084, 1091, 1074, 1122, 1063, 1113, 1011, 992, 911, 949, 906, 950, 1083, 1064, 934, 1011, 967, 965, 975, 960, 926, 916, 1111, 1035, 994, 984, 926, 1093, 928, 1034, 998, 933, 932, 1174, 1012, 888, 1022, 1016, 957, 939, 1130, 917, 1015, 948, 1069, 1121, 934, 1036, 935, 1132, 1083, 960, 1111, 1005, 1030, 938, 1112, 1058, 950, 964, 1001, 935, 1070, 949, 958, 1030, 944, 1032, 1049, 1092, 1048, 1005, 958, 969, 935, 1083, 1099, 1021, 1020, 1095, 958, 997, 977, 1149, 978, 985, 1156, 1082, 921, 1009, 1060, 1011, 988, 1042, 987, 1131, 1030, 1015, 987],
      "WindowCenter": [502.0, 504.0, 501.0, 504.0, 504.0, 501.0, 502.0, 502.0, 502.0, 503.0, 502.0, 504.0, 502.0, 503.0, 502.0, 504.0, 503.0, 504.0, 504.0, 503.0, 502.0, 502.0, 501.0, 501.0, 501.0, 503.0, 501.0, 501.0, 502.0, 504.0, 505.0, 503.0, 503.0, 503.0, 504.0, 503.0, 504.0, 503.0, 503.0, 504.0, 502.0, 502.0, 501.0, 504.0, 502.0, 503.0, 503.0, 505.0, 504.0, 504.0, 505.0, 502.0, 502.0, 501.0, 504.0, 501.0, 501.0, 501.0, 504.0, 503.0, 504.0, 504.0, 504.0, 502.0, 502.0, 502.0, 502.0, 504.0, 508.0, 509.0, 506.0, 505.0, 507.0, 504.0, 506.0, 506.0, 506.0, 506.0, 506.0, 506.0, 505.0, 505.0, 504.0, 505.0, 501.0, 505.0, 503.0, 505.0, 505.0, 504.0, 505.0, 503.0, 503.0, 503.0, 503.0, 503.0, 503.0, 505.0, 503.0, 504.0, 504.0, 502.0, 504.0, 503.0, 504.0, 504.0, 503.0, 506.0, 505.0, 505.0, 505.0, 504.0, 502.0, 504.0, 503.0, 505.0, 502.0, 505.0, 503.0, 504.0, 503.0, 504.0, 502.0, 504.0, 502.0, 503.0, 503.0, 503.0, 505.0, 504.0, 505.0, 505.0, 505.0, 505.0, 504.0, 504.0, 504.0, 502.0, 504.0, 503.0, 506.0, 505.0, 503.0, 505.0, 504.0, 505.0, 503.0, 505.0, 504.0, 505.0, 505.0, 505.0, 505.0, 505.0, 504.0, 504.0, 505.0, 506.0, 506.0, 506.0, 505.0, 505.0, 505.0, 505.0, 504.0, 504.0, 505.0, 503.0, 505.0, 505.0, 506.0, 504.0, 506.0, 505.0, 506.0, 505.0, 505.0, 504.0, 504.0, 507.0, 505.0, 506.0, 505.0, 504.0, 507.0, 505.0, 507.0, 505.0, 506.0, 505.0, 507.0, 505.0, 503.0, 506.0, 505.0, 505.0, 505.0, 507.0, 505.0, 508.0, 506.0, 507.0, 508.0, 506.0, 507.0, 506.0, 509.0, 506.0, 507.0, 508.0, 505.0, 506.0, 504.0, 507.0, 506.0, 505.0, 506.0, 506.0, 505.0, 507.0, 505.0, 506.0, 508.0, 506.0, 508.0, 507.0, 509.0, 508.0, 507.0, 506.0, 506.0, 506.0, 508.0, 507.0, 507.0, 507.0, 507.0, 507.0, 507.0, 507.0, 507.0, 508.0, 508.0, 510.0, 509.0, 508.0, 508.0, 508.0, 508.0, 508.0, 508.0, 508.0, 509.0, 509.0, 508.0, 508.0],
      "WindowWidth": [1043.0, 1045.0, 1040.0, 1044.0, 1043.0, 1039.0, 1042.0, 1041.0, 1041.0, 1042.0, 1041.0, 1044.0, 1042.0, 1043.0, 1042.0, 1044.0, 1043.0, 1044.0, 1044.0, 1043.0, 1041.0, 1041.0, 1040.0, 1040.0, 1040.0, 1043.0, 1040.0, 1040.0, 1040.0, 1045.0, 1046.0, 1044.0, 1042.0, 1043.0, 1045.0, 1042.0, 1045.0, 1042.0, 1043.0, 1043.0, 1041.0, 1041.0, 1039.0, 1044.0, 1042.0, 1043.0, 1042.0, 1047.0, 1046.0, 1045.0, 1046.0, 1042.0, 1042.0, 1039.0, 1043.0, 1040.0, 1039.0, 1039.0, 1044.0, 1042.0, 1045.0, 1045.0, 1043.0, 1042.0, 1041.0, 1041.0, 1041.0, 1045.0, 1054.0, 1055.0, 1047.0, 1047.0, 1051.0, 1046.0, 1048.0, 1048.0, 1048.0, 1049.0, 1049.0, 1049.0, 1046.0, 1046.0, 1044.0, 1046.0, 1040.0, 1046.0, 1044.0, 1046.0, 1047.0, 1045.0, 1046.0, 1043.0, 1044.0, 1043.0, 1043.0, 1044.0, 1043.0, 1046.0, 1043.0, 1046.0, 1044.0, 1042.0, 1045.0, 1043.0, 1045.0, 1045.0, 1043.0, 1049.0, 1047.0, 1047.0, 1046.0, 1045.0, 1042.0, 1045.0, 1044.0, 1046.0, 1042.0, 1047.0, 1042.0, 1045.0, 1043.0, 1044.0, 1042.0, 1044.0, 1042.0, 1043.0, 1044.0, 1043.0, 1046.0, 1044.0, 1048.0, 1046.0, 1047.0, 1046.0, 1046.0, 1044.0, 1045.0, 1042.0, 1046.0, 1043.0, 1048.0, 1046.0, 1044.0, 1046.0, 1045.0, 1046.0, 1043.0, 1046.0, 1045.0, 1046.0, 1047.0, 1046.0, 1048.0, 1046.0, 1046.0, 1045.0, 1047.0, 1049.0, 1048.0, 1049.0, 1046.0, 1047.0, 1046.0, 1047.0, 1045.0, 1045.0, 1046.0, 1044.0, 1047.0, 1046.0, 1048.0, 1045.0, 1049.0, 1046.0, 1049.0, 1047.0, 1047.0, 1045.0, 1045.0, 1049.0, 1047.0, 1048.0, 1047.0, 1045.0, 1049.0, 1047.0, 1050.0, 1048.0, 1049.0, 1047.0, 1051.0, 1047.0, 1045.0, 1048.0, 1046.0, 1047.0, 1047.0, 1050.0, 1047.0, 1054.0, 1048.0, 1050.0, 1052.0, 1049.0, 1050.0, 1048.0, 1056.0, 1049.0, 1051.0, 1051.0, 1047.0, 1047.0, 1046.0, 1050.0, 1049.0, 1047.0, 1047.0, 1048.0, 1048.0, 1049.0, 1047.0, 1049.0, 1053.0, 1049.0, 1051.0, 1050.0, 1053.0, 1052.0, 1051.0, 1049.0, 1049.0, 1050.0, 1052.0, 1051.0, 1051.0, 1050.0, 1051.0, 1051.0, 1050.0, 1050.0, 1050.0, 1053.0, 1052.0, 1056.0, 1055.0, 1053.0, 1053.0, 1052.0, 1052.0, 1052.0, 1052.0, 1053.0, 1054.0, 1054.0, 1052.0, 1053.0]
    },
    "slices": {}
  }
}