{
  "AcquisitionMatrixPE": 64,
  "AcquisitionNumber": 1,
  "AcquisitionTime": "19:29:13.742500",
  "BandwidthPerPixelPhaseEncode": 40.064,
  "BaseResolution": 64,
  "BodyPartExamined": "BRAIN",
  "ConsistencyInfo": "N4_VD13D_LATEST_20130810",
  "ConversionSoftware": "dcm2niix",
  "ConversionSoftwareVersion": "v1.0.20191031",
  "DerivedVendorReportedEchoSpacing": 0.000780002,
  "DeviceSerialNumber": "67007",
  "DwellTime": 5.3e-06,
  "EchoTime": 0.03,
  "EchoTrainLength": 31,
  "EffectiveEchoSpacing": 0.000390001,
  "FlipAngle": 75,
  "ImageOrientationPatientDICOM": [0.999133, 0.0414006, 0.00450159, -0.0401293, 0.98603, -0.161662],
  "ImageType": [
    "ORIGINAL",
    "PRIMARY",
    "M",
    "ND",
    "NORM",
    "MOSAIC"
],
  "ImagingFrequency": 123.211,
  "InPlanePhaseEncodingDirectionDICOM": "ROW",
  "InstitutionAddress": "Perth_Drive_100_London_Ontario_CA_N6A_5K8",
  "InstitutionName": "Robarts_Research_Institute",
  "InstitutionalDepartmentName": "CFMM",
  "MRAcquisitionType": "2D",
  "MagneticFieldStrength": 3,
  "Manufacturer": "Siemens",
  "ManufacturersModelName": "Prisma_fit",
  "Modality": "MR",
  "ParallelReductionFactorInPlane": 2,
  "PartialFourier": 1,
  "PatientPosition": "HFS",
  "PercentPhaseFOV": 100,
  "PhaseEncodingDirection": "i",
  "PhaseEncodingSteps": 63,
  "PhaseResolution": 1,
  "PixelBandwidth": 1475,
  "ProcedureStepDescription": "Owen_Naci",
  "ProtocolName": "Resting_State_light_sed",
  "PulseSequenceDetails": "%SiemensSeq%_ep2d_bold",
  "ReceiveCoilActiveElements": "HEA;HEP",
  "ReceiveCoilName": "Head_32",
  "ReconMatrixPE": 64,
  "RefLinesPE": 24,
  "RepetitionTime": 2,
  "SAR": 0.121103,
  "ScanOptions": "FS",
  "ScanningSequence": "EP",
  "SequenceName": "_epfid2d1_64",
  "SequenceVariant": "SK",
  "SeriesDescription": "Resting_State_light_sed",
  "SeriesNumber": 9,
  "ShimSetting": [5262, -6210, -3765, 402, 28, -118, 122, -6],
  "SliceThickness": 3,
  "SliceTiming": [1.92, 1.86, 1.8, 1.74, 1.68, 1.62, 1.56, 1.5, 1.44, 1.38, 1.32, 1.26, 1.2, 1.14, 1.08, 1.02, 0.96, 0.9, 0.84, 0.78, 0.72, 0.66, 0.6, 0.54, 0.48, 0.42, 0.36, 0.3, 0.24, 0.18, 0.12, 0.06, 0],
  "SoftwareVersions": "syngo_MR_D13D",
  "SpacingBetweenSlices": 3.75,
  "StationName": "AWP67007",
  "TaskName": "rest",
  "TotalReadoutTime": 0.0245701,
  "TxRefAmp": 322.304,
  "dcmmeta_affine": [
    [-2.9973974227905273, -0.12038791924715042, 0.04174353927373886, 101.47430419921875],
    [-0.12420179694890976, 2.958089828491211, -0.605029284954071, -64.37215423583984],
    [0.01350477896630764, 0.4849861264228821, 3.700634479522705, -41.04717254638672],
    [0.0, 0.0, 0.0, 1.0]
],
  "dcmmeta_reorient_transform": [
    [0.0, -1.0, 0.0, 63.0],
    [1.0, 0.0, 0.0, 0.0],
    [0.0, 0.0, 1.0, 0.0],
    [0.0, 0.0, 0.0, 1.0]
],
  "dcmmeta_shape": [64, 64, 33, 129],
  "dcmmeta_slice_dim": 2,
  "dcmmeta_version": 0.6,
  "global": {
    "const": {
      "AcquisitionMatrix": [0, 64, 64, 0],
      "AngioFlag": "N",
      "BitsAllocated": 16,
      "BitsStored": 12,
      "BodyPartExamined": "BRAIN",
      "Columns": 384,
      "EchoNumbers": 1,
      "EchoTime": 30.0,
      "EchoTrainLength": 31,
      "FlipAngle": 75.0,
      "HighBit": 11,
      "ImageOrientationPatient": [0.99913248669789, 0.04140060004933, 0.0045015931021, -0.0401293067298, 0.9860299298234, -0.1616620432688],
      "ImagePositionPatient": [-554.21138984718, -615.15415314492, 64.943971145387],
      "ImageType": [
        "ORIGINAL",
        "PRIMARY",
        "M",
        "ND",
        "NORM",
        "MOSAIC"
],
      "ImagedNucleus": "1H",
      "ImagingFrequency": 123.211183,
      "InPlanePhaseEncodingDirection": "ROW",
      "MRAcquisitionType": "2D",
      "MagneticFieldStrength": 3.0,
      "Manufacturer": "SIEMENS",
      "ManufacturerModelName": "Prisma_fit",
      "Modality": "MR",
      "NumberOfAverages": 1.0,
      "NumberOfPhaseEncodingSteps": 63,
      "PercentPhaseFieldOfView": 100.0,
      "PercentSampling": 100.0,
      "PerformedProcedureStepStartTime": "183209.631000",
      "PhotometricInterpretation": "MONOCHROME2",
      "PixelBandwidth": 1475.0,
      "PixelRepresentation": 0,
      "PixelSpacing": [3.0, 3.0],
      "ProtocolName": "Resting State_light sed",
      "RepetitionTime": 2000.0,
      "Rows": 384,
      "SAR": 0.12110299955505,
      "SamplesPerPixel": 1,
      "ScanOptions": "FS",
      "ScanningSequence": "EP",
      "SequenceName": "*epfid2d1_64",
      "SequenceVariant": "SK",
      "SeriesDescription": "Resting State_light sed",
      "SeriesNumber": 9,
      "SeriesTime": "193002.533000",
      "SliceLocation": -28.991371898816,
      "SliceThickness": 3.0,
      "SmallestImagePixelValue": 0,
      "SoftwareVersions": "syngo MR D13D",
      "SpacingBetweenSlices": 3.7499999177386,
      "SpecificCharacterSet": "ISO_IR 100",
      "StudyID": "1",
      "StudyTime": "183209.576000",
      "TimeOfLastCalibration": ["123723.000000", "123723.000000"],
      "TransmitCoilName": "Body",
      "VariableFlipAngleFlag": "N",
      "WindowCenterWidthExplanation": "Algo1",
      "dBdt": 0.0},
    "slices": {}
  },
  "time": {
    "samples": {
      "AcquisitionNumber": [1, 2, 5, 6, 9, 10, 11, 15, 16, 17, 23, 24, 26, 27, 30, 31, 32, 33, 36, 37, 41, 45, 46, 47, 48, 50, 54, 55, 56, 58, 59, 62, 63, 65, 66, 67, 69, 70, 71, 72, 75, 76, 78, 80, 81, 84, 85, 88, 89, 91, 93, 95, 96, 100, 101, 102, 112, 114, 115, 116, 119, 120, 124, 125, 126, 127, 128, 132, 133, 136, 138, 140, 145, 147, 148, 150, 151, 152, 153, 156, 157, 160, 165, 166, 169, 176, 179, 181, 182, 183, 189, 191, 192, 196, 198, 199, 200, 203, 204, 205, 212, 214, 215, 216, 218, 219, 220, 221, 222, 225, 228, 229, 230, 231, 233, 238, 241, 242, 245, 246, 247, 249, 250, 251, 252, 253, 254, 255, 256],
      "AcquisitionTime": ["192913.742500", "192915.742500", "192921.742500", "192923.742500", "192929.742500", "192931.742500", "192933.742500", "192941.742500", "192943.742500", "192945.742500", "192957.742500", "192959.742500", "193003.742500", "193005.742500", "193011.742500", "193013.742500", "193015.742500", "193017.742500", "193023.742500", "193025.742500", "193033.742500", "193041.742500", "193043.742500", "193045.742500", "193047.742500", "193051.742500", "193059.742500", "193101.742500", "193103.742500", "193107.742500", "193109.742500", "193115.742500", "193117.742500", "193121.742500", "193123.742500", "193125.742500", "193129.742500", "193131.742500", "193133.742500", "193135.742500", "193141.742500", "193143.742500", "193147.742500", "193151.742500", "193153.742500", "193159.742500", "193201.742500", "193207.742500", "193209.742500", "193213.742500", "193217.742500", "193221.742500", "193223.742500", "193231.742500", "193233.742500", "193235.742500", "193255.742500", "193259.742500", "193301.742500", "193303.742500", "193309.742500", "193311.742500", "193319.742500", "193321.742500", "193323.742500", "193325.742500", "193327.742500", "193335.742500", "193337.742500", "193343.745000", "193347.745000", "193351.745000", "193401.745000", "193405.745000", "193407.745000", "193411.745000", "193413.745000", "193415.745000", "193417.745000", "193423.745000", "193425.745000", "193431.745000", "193441.745000", "193443.745000", "193449.745000", "193503.745000", "193509.745000", "193513.745000", "193515.745000", "193517.745000", "193529.745000", "193533.745000", "193535.745000", "193543.745000", "193547.745000", "193549.745000", "193551.745000", "193557.745000", "193559.745000", "193601.745000", "193615.745000", "193619.745000", "193621.745000", "193623.745000", "193627.745000", "193629.745000", "193631.745000", "193633.745000", "193635.745000", "193641.745000", "193647.745000", "193649.745000", "193651.745000", "193653.745000", "193657.745000", "193707.745000", "193713.745000", "193715.745000", "193721.745000", "193723.745000", "193725.745000", "193729.745000", "193731.745000", "193733.745000", "193735.745000", "193737.745000", "193739.745000", "193741.745000", "193743.745000"],
      "ContentTime": ["193002.538000", "193002.542000", "193002.551000", "193002.554000", "193002.562000", "193002.565000", "193002.568000", "193002.579000", "193002.582000", "193002.585000", "193002.602000", "193002.605000", "193042.530000", "193042.533000", "193042.542000", "193042.545000", "193042.547000", "193042.550000", "193042.559000", "193042.562000", "193042.573000", "193042.584000", "193122.531000", "193122.534000", "193122.537000", "193122.543000", "193122.554000", "193122.557000", "193122.560000", "193122.565000", "193122.568000", "193122.576000", "193122.579000", "193122.585000", "193202.530000", "193202.534000", "193202.539000", "193202.542000", "193202.545000", "193202.548000", "193202.557000", "193202.559000", "193202.565000", "193202.570000", "193202.573000", "193202.581000", "193202.584000", "193242.536000", "193242.539000", "193242.545000", "193242.551000", "193242.556000", "193242.559000", "193242.571000", "193242.573000", "193242.576000", "193322.548000", "193322.554000", "193322.557000", "193322.559000", "193322.568000", "193322.571000", "193322.582000", "193322.585000", "193402.530000", "193402.534000", "193402.536000", "193402.555000", "193402.557000", "193402.566000", "193402.572000", "193402.578000", "193402.592000", "193442.532000", "193442.535000", "193442.541000", "193442.544000", "193442.547000", "193442.549000", "193442.558000", "193442.561000", "193442.570000", "193442.584000", "193522.528000", "193522.537000", "193522.557000", "193522.566000", "193522.571000", "193522.574000", "193522.577000", "193602.538000", "193602.543000", "193602.546000", "193602.558000", "193602.564000", "193602.566000", "193602.569000", "193602.578000", "193602.581000", "193602.583000", "193642.547000", "193642.553000", "193642.556000", "193642.559000", "193642.564000", "193642.567000", "193642.570000", "193642.573000", "193642.575000", "193642.583000", "193722.535000", "193722.537000", "193722.540000", "193722.543000", "193722.549000", "193722.563000", "193722.571000", "193722.574000", "193722.582000", "193744.018000", "193744.021000", "193744.028000", "193744.030000", "193744.033000", "193744.036000", "193744.039000", "193744.041000", "193744.044000", "193744.047000"],
      "InstanceCreationTime": ["193002.538000", "193002.542000", "193002.551000", "193002.554000", "193002.562000", "193002.565000", "193002.568000", "193002.579000", "193002.582000", "193002.585000", "193002.602000", "193002.605000", "193042.530000", "193042.533000", "193042.542000", "193042.545000", "193042.547000", "193042.550000", "193042.559000", "193042.562000", "193042.573000", "193042.584000", "193122.531000", "193122.534000", "193122.537000", "193122.543000", "193122.554000", "193122.557000", "193122.560000", "193122.565000", "193122.568000", "193122.576000", "193122.579000", "193122.585000", "193202.530000", "193202.534000", "193202.539000", "193202.542000", "193202.545000", "193202.548000", "193202.557000", "193202.559000", "193202.565000", "193202.570000", "193202.573000", "193202.581000", "193202.584000", "193242.536000", "193242.539000", "193242.545000", "193242.551000", "193242.556000", "193242.559000", "193242.571000", "193242.573000", "193242.576000", "193322.548000", "193322.554000", "193322.557000", "193322.559000", "193322.568000", "193322.571000", "193322.582000", "193322.585000", "193402.530000", "193402.534000", "193402.536000", "193402.555000", "193402.557000", "193402.566000", "193402.572000", "193402.578000", "193402.592000", "193442.532000", "193442.535000", "193442.541000", "193442.544000", "193442.547000", "193442.549000", "193442.558000", "193442.561000", "193442.570000", "193442.584000", "193522.528000", "193522.537000", "193522.557000", "193522.566000", "193522.571000", "193522.574000", "193522.577000", "193602.538000", "193602.543000", "193602.546000", "193602.558000", "193602.564000", "193602.566000", "193602.569000", "193602.578000", "193602.581000", "193602.583000", "193642.547000", "193642.553000", "193642.556000", "193642.559000", "193642.564000", "193642.567000", "193642.570000", "193642.573000", "193642.575000", "193642.583000", "193722.535000", "193722.537000", "193722.540000", "193722.543000", "193722.549000", "193722.563000", "193722.571000", "193722.574000", "193722.582000", "193744.018000", "193744.021000", "193744.028000", "193744.030000", "193744.033000", "193744.036000", "193744.039000", "193744.041000", "193744.044000", "193744.047000"],
      "InstanceNumber": [1, 2, 5, 6, 9, 10, 11, 15, 16, 17, 23, 24, 26, 27, 30, 31, 32, 33, 36, 37, 41, 45, 46, 47, 48, 50, 54, 55, 56, 58, 59, 62, 63, 65, 66, 67, 69, 70, 71, 72, 75, 76, 78, 80, 81, 84, 85, 88, 89, 91, 93, 95, 96, 100, 101, 102, 112, 114, 115, 116, 119, 120, 124, 125, 126, 127, 128, 132, 133, 136, 138, 140, 145, 147, 148, 150, 151, 152, 153, 156, 157, 160, 165, 166, 169, 176, 179, 181, 182, 183, 189, 191, 192, 196, 198, 199, 200, 203, 204, 205, 212, 214, 215, 216, 218, 219, 220, 221, 222, 225, 228, 229, 230, 231, 233, 238, 241, 242, 245, 246, 247, 249, 250, 251, 252, 253, 254, 255, 256],
      "LargestImagePixelValue": [1248, 916, 948, 917, 922, 956, 910, 945, 992, 911, 890, 888, 1011, 916, 972, 886, 1030, 897, 878, 928, 1009, 958, 1001, 987, 863, 985, 884, 959, 974, 940, 1011, 1016, 959, 1004, 877, 858, 871, 890, 870, 885, 1010, 975, 915, 889, 880, 926, 1004, 974, 998, 954, 1010, 978, 910, 1011, 972, 1062, 858, 1006, 978, 914, 873, 959, 874, 941, 958, 919, 919, 999, 970, 888, 978, 959, 875, 898, 882, 1087, 927, 867, 1035, 857, 864, 863, 865, 884, 1007, 896, 872, 927, 909, 996, 983, 865, 884, 901, 1007, 908, 1024, 883, 859, 865, 926, 895, 946, 873, 896, 930, 865, 904, 1078, 859, 1023, 879, 900, 897, 1081, 864, 1099, 918, 1062, 1023, 883, 936, 915, 975, 869, 993, 969, 906, 874],
      "WindowCenter": [490.0, 485.0, 481.0, 480.0, 482.0, 483.0, 482.0, 484.0, 485.0, 485.0, 485.0, 484.0, 492.0, 490.0, 486.0, 484.0, 487.0, 485.0, 483.0, 484.0, 486.0, 486.0, 486.0, 485.0, 484.0, 486.0, 485.0, 486.0, 487.0, 486.0, 486.0, 485.0, 485.0, 485.0, 483.0, 483.0, 484.0, 484.0, 483.0, 483.0, 486.0, 485.0, 485.0, 484.0, 484.0, 486.0, 486.0, 486.0, 486.0, 487.0, 487.0, 487.0, 486.0, 487.0, 487.0, 487.0, 483.0, 486.0, 484.0, 484.0, 484.0, 485.0, 484.0, 485.0, 485.0, 484.0, 484.0, 487.0, 486.0, 485.0, 487.0, 485.0, 484.0, 486.0, 487.0, 488.0, 485.0, 484.0, 486.0, 483.0, 482.0, 483.0, 483.0, 483.0, 485.0, 483.0, 485.0, 487.0, 487.0, 487.0, 486.0, 484.0, 484.0, 485.0, 488.0, 487.0, 488.0, 485.0, 485.0, 486.0, 487.0, 487.0, 486.0, 485.0, 486.0, 487.0, 486.0, 487.0, 489.0, 486.0, 488.0, 486.0, 486.0, 486.0, 489.0, 487.0, 489.0, 487.0, 488.0, 487.0, 485.0, 486.0, 486.0, 486.0, 485.0, 486.0, 487.0, 488.0, 487.0],
      "WindowWidth": [1019.0, 1010.0, 1001.0, 1001.0, 1004.0, 1005.0, 1003.0, 1008.0, 1009.0, 1008.0, 1010.0, 1007.0, 1024.0, 1019.0, 1010.0, 1007.0, 1012.0, 1010.0, 1005.0, 1008.0, 1011.0, 1011.0, 1012.0, 1010.0, 1007.0, 1011.0, 1009.0, 1012.0, 1013.0, 1010.0, 1011.0, 1010.0, 1009.0, 1009.0, 1006.0, 1006.0, 1007.0, 1007.0, 1005.0, 1006.0, 1011.0, 1010.0, 1009.0, 1008.0, 1007.0, 1010.0, 1011.0, 1011.0, 1012.0, 1012.0, 1012.0, 1012.0, 1011.0, 1013.0, 1012.0, 1013.0, 1006.0, 1010.0, 1008.0, 1007.0, 1007.0, 1009.0, 1008.0, 1010.0, 1009.0, 1008.0, 1008.0, 1011.0, 1011.0, 1010.0, 1012.0, 1010.0, 1008.0, 1011.0, 1013.0, 1014.0, 1009.0, 1008.0, 1010.0, 1005.0, 1004.0, 1005.0, 1005.0, 1005.0, 1008.0, 1006.0, 1009.0, 1013.0, 1012.0, 1012.0, 1011.0, 1007.0, 1008.0, 1009.0, 1014.0, 1013.0, 1013.0, 1009.0, 1009.0, 1011.0, 1013.0, 1012.0, 1011.0, 1009.0, 1010.0, 1012.0, 1012.0, 1014.0, 1017.0, 1011.0, 1015.0, 1011.0, 1010.0, 1012.0, 1015.0, 1013.0, 1016.0, 1012.0, 1014.0, 1013.0, 1009.0, 1010.0, 1010.0, 1011.0, 1009.0, 1011.0, 1012.0, 1015.0, 1014.0]
    },
    "slices": {}
  }
}